"Distance*$Poles/(3.14159265358979*($DiaGap-$AirGap)*2*50)*1s [ms]",Flux_Lines [] - Time='0.02s'
0,-0.100531406699936
0.00999997346797102,-0.100531576215998
0.019999946935942,-0.100531016940637
0.029999920403913,-0.100529728796515
0.0399998938718841,-0.100527711706816
0.0499998673398551,-0.100525002078905
0.0599998408078261,-0.100522860863079
0.0699998142757971,-0.100520204991589
0.0799997877437681,-0.100517002679839
0.0899997612117391,-0.100513254143801
0.0999997346797102,-0.100508940419871
0.109999708147681,-0.100503586621599
0.119999681615652,-0.100497995621361
0.129999655083623,-0.100492371065962
0.139999628551594,-0.100486713303991
0.149999602019565,-0.100480888511189
0.159999575487536,-0.100473757185018
0.169999548955507,-0.100466298100184
0.179999522423478,-0.100458577785718
0.189999495891449,-0.100450596393242
0.19999946935942,-0.100442474763114
0.209999442827391,-0.100434558499627
0.219999416295362,-0.100426219834353
0.229999389763333,-0.100417448310521
0.239999363231304,-0.100408244116331
0.249999336699275,-0.100398851917223
0.259999310167246,-0.100389581651794
0.269999283635217,-0.100380005784955
0.279999257103189,-0.100369905432738
0.28999923057116,-0.100359280344786
0.29999920403913,-0.100348312561065
0.309999177507101,-0.10033748861208
0.319999150975073,-0.100326331232568
0.329999124443044,-0.100314769830448
0.339999097911015,-0.100302804141828
0.349999071378986,-0.100290279347868
0.359999044846957,-0.100276743742554
0.369999018314928,-0.100262822647012
0.379998991782899,-0.100248593379417
0.38999896525087,-0.100234055461686
0.399998938718841,-0.100218858825619
0.409998912186812,-0.10020259328223
0.419998885654783,-0.100185629491243
0.429998859122754,-0.100167869259549
0.439998832590725,-0.100149312303969
0.449998806058696,-0.10013001240784
0.459998779526667,-0.10011018508346
0.469998752994638,-0.100089500832167
0.479998726462609,-0.100067864241169
0.48999869993058,-0.100045275574419
0.499998673398551,-0.100021955293737
0.509998646866522,-0.0999981142462727
0.519998620334493,-0.0999734487642846
0.529998593802464,-0.0999478658300457
0.539998567270435,-0.0999213658292327
0.549998540738406,-0.0998942029588561
0.559998514206377,-0.0998669156640923
0.569998487674348,-0.0998389779459167
0.579998461142319,-0.0998103370638145
0.58999843461029,-0.099780993457806
0.599998408078261,-0.0997509068828293
0.609998381546232,-0.0997194915369445
0.619998355014203,-0.0996876861750818
0.629998328482174,-0.0996555805114403
0.639998301950145,-0.0996231747229164
0.649998275418116,-0.0995900373306184
0.659998248886087,-0.0995554730150807
0.669998222354058,-0.0995201304092071
0.679998195822029,-0.0994840804334426
0.68999816929,-0.0994473233325335
0.699998142757971,-0.099409842284099
0.709998116225942,-0.0993721460055803
0.719998089693913,-0.099333548039285
0.729998063161884,-0.0992939111634846
0.739998036629855,-0.0992532360072362
0.749998010097826,-0.0992116419746444
0.759997983565797,-0.0991700699747016
0.769997957033768,-0.0991274357501989
0.779997930501739,-0.0990835861134894
0.78999790396971,-0.0990385219804458
0.799997877437681,-0.09899271988975
0.809997850905652,-0.0989474957743845
0.819997824373623,-0.0989018086629643
0.829997797841594,-0.0988556064144706
0.839997771309565,-0.0988088905809564
0.849997744777536,-0.098761710335653
0.859997718245507,-0.0987129380765895
0.869997691713478,-0.0986645522469938
0.87999766518145,-0.0986171443236564
0.889997638649421,-0.098570714947009
0.899997612117391,-0.0985250159506994
0.909997585585362,-0.0984772796699091
0.919997559053334,-0.0984293812174687
0.929997532521304,-0.0983812528959987
0.939997505989275,-0.0983328934056139
0.949997479457247,-0.0982843330379348
0.959997452925217,-0.0982376416241431
0.969997426393189,-0.0981897875895458
0.97999739986116,-0.0981405031375543
0.98999737332913,-0.0980897869648276
0.999997346797102,-0.0980376377698136
1.00999732026507,-0.0979860455520256
1.01999729373304,-0.0979326994885178
1.02999726720101,-0.0978775979082175
1.03999724066899,-0.0978207391428579
1.04999721413696,-0.0977620940391672
1.05999718760493,-0.0977031115495773
1.0699971610729,-0.097641849213834
1.07999713454087,-0.0975782232659446
1.08999710800884,-0.0975122325970895
1.09999708147681,-0.0974436671916417
1.10999705494478,-0.0973720392049721
1.11999702841275,-0.0972981028191913
1.12999700188072,-0.0972217986314862
1.1399969753487,-0.0971431270078485
1.14999694881667,-0.0970620858441438
1.15999692228464,-0.0969778672426596
1.16999689575261,-0.0968910675192561
1.17999686922058,-0.0968017410974681
1.18999684268855,-0.096709889548637
1.19999681615652,-0.096615892863587
1.20999678962449,-0.0965213546574089
1.21999676309246,-0.0964246525504106
1.22999673656043,-0.0963255673139542
1.23999671002841,-0.0962241004901756
1.24999668349638,-0.0961202906890131
1.25999665696435,-0.0960150733326385
1.26999663043232,-0.095907614493017
1.27999660390029,-0.0957976009760158
1.28999657736826,-0.0956850337401282
1.29999655083623,-0.0955701513119902
1.3099965243042,-0.0954542039678121
1.31999649777217,-0.09533621762953
1.32999647124015,-0.095216024328768
1.33999644470812,-0.0950936258197735
1.34999641817609,-0.0949686163887549
1.35999639164406,-0.0948389037808385
1.36999636511203,-0.0947066311354622
1.37999633858,-0.0945729216856399
1.38999631204797,-0.0944377774894083
1.39999628551594,-0.0943009033905982
1.40999625898391,-0.094158996107697
1.41999623245188,-0.0940139928592478
1.42999620591986,-0.093865983067021
1.43999617938783,-0.0937149683722545
1.4499961528558,-0.0935616694507741
1.45999612632377,-0.0934085143192472
1.46999609979174,-0.0932529408012565
1.47999607325971,-0.0930946468003601
1.48999604672768,-0.09293363566293
1.49999602019565,-0.0927704307794852
1.50999599366362,-0.0926083846538809
1.51999596713159,-0.0924453745937634
1.52999594059957,-0.09228083696368
1.53999591406754,-0.0921147721022305
1.54999588753551,-0.0919489876880571
1.55999586100348,-0.0917878062729642
1.56999583447145,-0.0916268677087287
1.57999580793942,-0.0914657576726421
1.58999578140739,-0.0913044739545648
1.59999575487536,-0.0911424265109938
1.60999572834333,-0.0909797344351826
1.6199957018113,-0.0908173886718267
1.62999567527928,-0.0906558218464258
1.63999564874725,-0.0904950279832901
1.64999562221522,-0.0903340830161419
1.65999559568319,-0.0901687406938573
1.66999556915116,-0.0900026054821716
1.67999554261913,-0.0898355803695063
1.6899955160871,-0.0896676584996101
1.69999548955507,-0.0894983984523411
1.70999546302304,-0.0893249853857963
1.71999543649101,-0.089149096495542
1.72999540995899,-0.0889703268004623
1.73999538342696,-0.088788670703891
1.74999535689493,-0.0886029273540565
1.7599953303629,-0.0884142487014293
1.76999530383087,-0.0882203401959599
1.77999527729884,-0.0880226243377873
1.78999525076681,-0.0878211003741246
1.79999522423478,-0.0876160122803631
1.80999519770275,-0.0874063858691293
1.81999517117072,-0.0871920291290777
1.8299951446387,-0.0869748133363655
1.83999511810667,-0.0867547414857927
1.84999509157464,-0.0865320297581398
1.85999506504261,-0.086308450640955
1.86999503851058,-0.0860829280908272
1.87999501197855,-0.0858556674302863
1.88999498544652,-0.0856266714049657
1.89999495891449,-0.0853964195980587
1.90999493238246,-0.0851664026117688
1.91999490585043,-0.0849355879884061
1.92999487931841,-0.0847039574048385
1.93999485278638,-0.0844715126560718
1.94999482625435,-0.0842382853180398
1.95999479972232,-0.0840046067505296
1.96999477319029,-0.0837703956440387
1.97999474665826,-0.0835356606309895
1.98999472012623,-0.0833004027841068
1.9999946935942,-0.0830646231767635
2.00999466706217,-0.0828282794915533
2.01999464053014,-0.0825913760329961
2.02999461399812,-0.0823539139938661
2.03999458746609,-0.0821158945678793
2.04999456093406,-0.081877325975615
2.05999453440203,-0.0816381685580616
2.06999450787,-0.0813985639762485
2.07999448133797,-0.0811585324560976
2.08999445480594,-0.0809180760281081
2.09999442827391,-0.0806772599315866
2.10999440174188,-0.0804362440925281
2.11999437520986,-0.0801952524739428
2.12999434867783,-0.0799546060128062
2.1399943221458,-0.0797143080490783
2.14999429561377,-0.0794747753880697
2.15999426908174,-0.0792360180866961
2.16999424254971,-0.0789993295361232
2.17999421601768,-0.0787649126529798
2.18999418948565,-0.0785327717485725
2.19999416295362,-0.078304898878568
2.20999413642159,-0.0780786930882698
2.21999410988957,-0.0778572266901835
2.22999408335754,-0.0776392950639619
2.23999405682551,-0.0774248961342305
2.24999403029348,-0.0772137632689811
2.25999400376145,-0.0770054098192293
2.26999397722942,-0.0768006377721168
2.27999395069739,-0.0765980104034386
2.28999392416536,-0.0763975220059746
2.29999389763333,-0.0761988306457838
2.3099938711013,-0.0760007333401669
2.31999384456928,-0.0758036372104073
2.32999381803725,-0.0756065414539708
2.33999379150522,-0.0754094394843493
2.34999376497319,-0.0752118616753352
2.35999373844116,-0.0750124926594111
2.36999371190913,-0.0748117409923232
2.3799936853771,-0.0746088221188077
2.38999365884507,-0.0744037301442187
2.39999363231304,-0.0741957691009634
2.40999360578102,-0.0739833457594882
2.41999357924899,-0.0737675172469952
2.42999355271696,-0.0735475684052619
2.43999352618493,-0.0733234963799574
2.4499934996529,-0.0730953606431706
2.45999347312087,-0.0728614676080893
2.46999344658884,-0.0726230517808966
2.47999342005681,-0.0723809248716513
2.48999339352478,-0.0721350889645947
2.49999336699275,-0.0718863269174154
2.50999334046073,-0.0716329937407872
2.5199933139287,-0.0713774413193261
2.52999328739667,-0.0711199817868417
2.53999326086464,-0.0708606192315832
2.54999323433261,-0.0706002332200553
2.55999320780058,-0.0703388684037234
2.56999318126855,-0.0700762399561506
2.57999315473652,-0.0698127696254283
2.58999312820449,-0.0695484599198531
2.59999310167246,-0.0692836087780802
2.60999307514043,-0.0690182333995222
2.61999304860841,-0.0687522448936396
2.62999302207638,-0.0684857123667494
2.63999299554435,-0.0682186373032005
2.64999296901232,-0.0679511074967911
2.65999294248029,-0.0676830344031348
2.66999291594826,-0.0674145072350758
2.67999288941623,-0.0671455128465569
2.6899928628842,-0.0668760524548461
2.69999283635217,-0.0666060735611798
2.70999280982015,-0.0663356107736865
2.71999278328812,-0.0660648117223552
2.72999275675609,-0.0657936753316701
2.73999273022406,-0.0655222032745705
2.74999270369203,-0.06525037823216
2.75999267716,-0.0649780503431763
2.76999265062797,-0.0647059645889095
2.77999262409594,-0.0644341534431575
2.78999259756391,-0.0641626200582577
2.79999257103188,-0.0638919873056746
2.80999254449986,-0.0636215351647949
2.81999251796783,-0.0633523020517856
2.8299924914358,-0.0630850346984324
2.83999246490377,-0.0628197378935358
2.84999243837174,-0.062556851116449
2.85999241183971,-0.0622984519547479
2.86999238530768,-0.0620433947014033
2.87999235877565,-0.0617924441891
2.88999233224362,-0.0615456009932371
2.89999230571159,-0.0613025669173899
2.90999227917957,-0.0610639657516106
2.91999225264754,-0.0608293219700874
2.92999222611551,-0.0605980212333417
2.93999219958348,-0.0603700578668774
2.94999217305145,-0.0601452909107082
2.95999214651942,-0.0599223331767944
2.96999211998739,-0.0597006330503197
2.97999209345536,-0.0594797964564601
2.98999206692333,-0.0592598159923005
2.99999204039131,-0.0590406842526114
3.00999201385928,-0.0588210661736007
3.01999198732725,-0.0585997828116755
3.02999196079522,-0.0583768267052884
3.03999193426319,-0.0581521903960468
3.04999190773116,-0.057925459962974
3.05999188119913,-0.0576958305858565
3.0699918546671,-0.0574620981075271
3.07999182813507,-0.0572241252666073
3.08999180160304,-0.0569819062004025
3.09999177507101,-0.056734794568559
3.10999174853899,-0.0564822261667331
3.11999172200696,-0.0562248655242375
3.12999169547493,-0.0559624037335165
3.1399916689429,-0.0556948412589948
3.14999164241087,-0.0554229454929291
3.15999161587884,-0.0551454658010836
3.16999158934681,-0.0548646073502025
3.17999156281478,-0.0545808242370104
3.18999153628275,-0.0542941211630332
3.19999150975072,-0.054005269593511
3.2099914832187,-0.0537153137638545
3.21999145668667,-0.0534235493872329
3.22999143015464,-0.0531306304446942
3.23999140362261,-0.0528365599966892
3.24999137709058,-0.0525413850998015
3.25999135055855,-0.0522458763298478
3.26999132402652,-0.051949888159125
3.27999129749449,-0.0516534381042461
3.28999127096246,-0.0513565278064021
3.29999124443044,-0.051059159686972
3.30999121789841,-0.0507614697407695
3.31999119136638,-0.0504634928488892
3.32999116483435,-0.0501651934119848
3.33999113830232,-0.0498665727092841
3.34999111177029,-0.0495675863042537
3.35999108523826,-0.0492683802590105
3.36999105870623,-0.0489688025759873
3.3799910321742,-0.0486689698249331
3.38999100564217,-0.0483688836891207
3.39999097911015,-0.0480686295573085
3.40999095257812,-0.0477681483936258
3.41999092604609,-0.0474674251384014
3.42999089951406,-0.0471668079807191
3.43999087298203,-0.0468662998535969
3.44999084645,-0.0465664323075441
3.45999081991797,-0.0462669317129431
3.46999079338594,-0.0459677969533049
3.47999076685391,-0.0456701136245644
3.48999074032188,-0.0453738865946411
3.49999071378986,-0.0450794940382809
3.50999068725783,-0.0447897779972761
3.5199906607258,-0.0445027591357904
3.52999063419377,-0.0442194735213081
3.53999060766174,-0.0439399236569238
3.54999058112971,-0.04366506383325
3.55999055459768,-0.0433964430721022
3.56999052806565,-0.0431318597613772
3.57999050153362,-0.0428713504667219
3.58999047500159,-0.0426149117941288
3.59999044846957,-0.0423618467042019
3.60999042193754,-0.042113710951579
3.61999039540551,-0.0418682729099945
3.62999036887348,-0.0416246564542328
3.63999034234145,-0.0413828544874342
3.64999031580942,-0.0411420342413192
3.65999028927739,-0.0409027406675841
3.66999026274536,-0.0406633772886143
3.67999023621333,-0.0404234046853579
3.68999020968131,-0.0401828147464347
3.69999018314928,-0.0399404554138788
3.70999015661725,-0.0396966723657691
3.71999013008522,-0.0394503952512339
3.72999010355319,-0.0392012760461014
3.73999007702116,-0.0389493078230001
3.74999005048913,-0.038692490467894
3.7599900239571,-0.0384318703802848
3.76998999742507,-0.0381668495333324
3.77998997089304,-0.0378970648750858
3.78998994436101,-0.0376225147484707
3.79998991782899,-0.037341171694361
3.80998989129696,-0.0370565180892783
3.81998986476493,-0.0367651403052977
3.8299898382329,-0.0364690900670157
3.83998981170087,-0.0361683737431538
3.84998978516884,-0.0358631563535933
3.85998975863681,-0.0355544569137818
3.86998973210478,-0.0352425774624652
3.87998970557275,-0.0349279398390469
3.88998967904072,-0.0346105482239464
3.8999896525087,-0.034291010185196
3.90998962597667,-0.0339698941511099
3.91998959944464,-0.0336474935651328
3.92998957291261,-0.0333239211470365
3.93998954638058,-0.0329991788417922
3.94998951984855,-0.0326733407818159
3.95998949331652,-0.032346876690255
3.96998946678449,-0.032019839882135
3.97998944025246,-0.0316922613402728
3.98998941372044,-0.0313641420214593
3.99998938718841,-0.031035482883349
4.00998936065638,-0.0307063533120631
4.01998933412435,-0.03037691287262
4.02998930759232,-0.030047162728968
4.03998928106029,-0.0297171040457723
4.04998925452826,-0.0293867580132805
4.05998922799623,-0.0290561379267427
4.0699892014642,-0.0287254743150749
4.07998917493218,-0.0283948130968159
4.08998914840014,-0.0280641566447314
4.09998912186812,-0.0277336094137385
4.10998909533609,-0.0274035910433769
4.11998906880406,-0.0270742672750279
4.12998904227203,-0.0267460817905156
4.13998901574,-0.0264190387449653
4.14998898920797,-0.0260936739837688
4.15998896267594,-0.025770330388054
4.16998893614391,-0.0254503065415422
4.17998890961189,-0.025133828183341
4.18998888307986,-0.0248209007561276
4.19998885654783,-0.0245128804130659
4.2099888300158,-0.0242127830776951
4.21998880348377,-0.023917056881937
4.22998877695174,-0.023626412955259
4.23998875041971,-0.0233408492626568
4.24998872388768,-0.0230595039141295
4.25998869735565,-0.0227832549064703
4.26998867082362,-0.0225121811824937
4.27998864429159,-0.0222443978555585
4.28998861775957,-0.0219798973172008
4.29998859122754,-0.021718235500439
4.30998856469551,-0.0214571958730207
4.31998853816348,-0.0211984190718142
4.32998851163145,-0.0209400299590795
4.33998848509942,-0.0206820202407872
4.34998845856739,-0.0204232024779362
4.35998843203536,-0.020163671900262
4.36998840550334,-0.0199020515444392
4.3799883789713,-0.0196378093392965
4.38998835243928,-0.019370936875354
4.39998832590725,-0.0190995897932986
4.40998829937522,-0.0188225688751563
4.41998827284319,-0.0185419998130191
4.42998824631116,-0.0182563294584729
4.43998821977913,-0.0179655538205555
4.4499881932471,-0.0176697548616307
4.45998816671507,-0.0173667234904539
4.46998814018304,-0.0170581533324392
4.47998811365102,-0.0167452543097608
4.48998808711899,-0.0164280284692933
4.49998806058696,-0.0161077516675229
4.50998803405493,-0.0157818714053519
4.5199880075229,-0.0154542565087403
4.52998798099087,-0.0151254551291641
4.53998795445884,-0.0147954723101311
4.54998792792681,-0.0144654576489369
4.55998790139478,-0.0141358252647675
4.56998787486275,-0.013806007187106
4.57998784833073,-0.0134764177843276
4.5899878217987,-0.0131470616801107
4.59998779526667,-0.0128174785871426
4.60998776873464,-0.0124880427634985
4.61998774220261,-0.0121572267261862
4.62998771567058,-0.0118248739630631
4.63998768913855,-0.0114909881532201
4.64998766260652,-0.0111557903467376
4.65998763607449,-0.0108181725977577
4.66998760954246,-0.0104792789245151
4.67998758301044,-0.010138788582437
4.68998755647841,-0.00979670261542317
4.69998752994638,-0.00945349273604253
4.70998750341435,-0.00910929506347835
4.71998747688232,-0.00876461629991753
4.72998745035029,-0.00841956736066995
4.73998742381826,-0.00807414936901842
4.74998739728623,-0.00772853460459608
4.7599873707542,-0.00738251462422948
4.76998734422217,-0.00703724938820433
4.77998731769015,-0.00669286856032623
4.78998729115812,-0.00634937524977029
4.79998726462609,-0.00600759157471191
4.80998723809406,-0.0056666306265247
4.81998721156203,-0.00532775215227483
4.82998718503,-0.00499191403354489
4.83998715849797,-0.00465912165583858
4.84998713196594,-0.00432995303163073
4.85998710543391,-0.00400740883175525
4.86998707890189,-0.00368962158159206
4.87998705236986,-0.00337748261083721
4.88998702583783,-0.00307099238303748
4.8999869993058,-0.00276980840319154
4.90998697277377,-0.00247525212942389
4.91998694624174,-0.00218613217495025
4.92998691970971,-0.00190163691361977
4.93998689317768,-0.00162175934843021
4.94998686664565,-0.00134635042431562
4.95998684011362,-0.0010744659100838
4.9699868135816,-0.00080466515763421
4.97998678704957,-0.000536431720124923
4.98998676051754,-0.000269756836490739
4.99998673398551,-4.6317422856848E-06
5.00998670745348,0.000260501465795615
5.01998668092145,0.000527202535092307
5.02998665438942,0.000795480226145113
5.03998662785739,0.00106534329607771
5.04998660132536,0.00133730918279483
5.05998657479334,0.00161281819079309
5.06998654826131,0.00189280968336641
5.07998652172928,0.00217743290815579
5.08998649519725,0.00246669483341325
5.09998646866522,0.0027614012025821
5.10998644213319,0.00306274836885983
5.11998641560116,0.00336939764705644
5.12998638906913,0.0036816879338852
5.1399863625371,0.00399961871905809
5.14998633600507,0.0043222899500983
5.15998630947304,0.0046515637719727
5.16998628294101,0.00498444450804506
5.17998625640899,0.00532034876748225
5.18998622987696,0.00565927116657335
5.19998620334493,0.00600026630529001
5.2099861768129,0.00634210078772321
5.21998615028087,0.00668563193735134
5.22998612374884,0.00703003719913331
5.23998609721681,0.00737531348180228
5.24998607068478,0.00772133291359592
5.25998604415275,0.00806695319206215
5.26998601762073,0.00841237685776182
5.2799859910887,0.00875742947265822
5.28998596455667,0.00910210992191716
5.29998593802464,0.00944630729760477
5.30998591149261,0.0097895148413178
5.31998588496058,0.0101315961818483
5.32998585842855,0.0104720797016152
5.33998583189652,0.0108109643666148
5.34998580536449,0.0111485706358011
5.35998577883247,0.0114837519291623
5.36998575230044,0.0118176188621881
5.37998572576841,0.0121499499782821
