"Distance*$Poles/(3.14159265358979*($DiaGap-$AirGap)*2*50)*1s [ms]",Flux_Lines [] - Time='0.02s'
0,-0.0928500816224199
0.00999998213558026,-0.0928502792973982
0.0199999642711605,-0.0928496745771445
0.0299999464067408,-0.092848267379157
0.039999928542321,-0.0928460576220716
0.0499999106779013,-0.0928430854183485
0.0599998928134815,-0.092840722444759
0.0699998749490618,-0.0928377820074852
0.0799998570846421,-0.0928342284400983
0.0899998392202223,-0.0928300619625134
0.0999998213558026,-0.092825288273355
0.109999803491383,-0.092819458215312
0.119999785626963,-0.0928134157849678
0.129999767762543,-0.0928072481721079
0.139999749898124,-0.0928009556364772
0.149999732033704,-0.09279443144091
0.159999714169284,-0.0927866215788423
0.169999696304864,-0.092778460506432
0.179999678440445,-0.0927700016519401
0.189999660576025,-0.0927612452167345
0.199999642711605,-0.0927523293084263
0.209999624847185,-0.0927436382271745
0.219999606982766,-0.0927344867650048
0.229999589118346,-0.0927248642771303
0.239999571253926,-0.0927147709719661
0.249999553389506,-0.0927044799431277
0.259999535525087,-0.0926943087023675
0.269999517660667,-0.0926838050089751
0.279999499796247,-0.092672731054309
0.289999481931828,-0.0926610865640168
0.299999464067408,-0.0926490625654858
0.309999446202988,-0.09263717711218
0.319999428338568,-0.0926249186263603
0.329999410474148,-0.092612209102096
0.339999392609729,-0.0925990482450471
0.349999374745309,-0.0925852692391783
0.359999356880889,-0.0925704146024281
0.369999339016469,-0.0925551123043727
0.37999932115205,-0.0925394393160773
0.38999930328763,-0.0925233951114431
0.39999928542321,-0.0925066096353675
0.409999267558791,-0.0924886767087546
0.419999249694371,-0.0924699669788311
0.429999231829951,-0.0924503574417942
0.439999213965531,-0.0924298477873784
0.449999196101112,-0.092408493063603
0.459999178236692,-0.0923864994465016
0.469999160372272,-0.0923635481514936
0.479999142507852,-0.0923395457005722
0.489999124643433,-0.0923144923943023
0.499999106779013,-0.0922885986534548
0.509999088914593,-0.0922620757949444
0.519999071050173,-0.0922346163289879
0.529999053185754,-0.0922061241367822
0.539999035321334,-0.0921765996614493
0.549999017456914,-0.0921463246681204
0.559998999592495,-0.0921158877645307
0.569998981728075,-0.0920846982191301
0.579998963863655,-0.0920526965493029
0.589998945999235,-0.092019883267345
0.599998928134816,-0.0919862179624642
0.609998910270396,-0.091951114816444
0.619998892405976,-0.0919155303574254
0.629998874541556,-0.0918795594646943
0.639998856677137,-0.0918432023671781
0.649998838812717,-0.0918060026137101
0.659998820948297,-0.0917672259313431
0.669998803083877,-0.0917276003904532
0.679998785219457,-0.0916871289051626
0.689998767355038,-0.0916458117476102
0.699998749490618,-0.0916036178435603
0.709998731626198,-0.0915611512497028
0.719998713761779,-0.0915176626182786
0.729998695897359,-0.0914729920057943
0.739998678032939,-0.091427140154258
0.749998660168519,-0.0913802255529495
0.7599986423041,-0.0913332400525925
0.76999862443968,-0.0912850298116148
0.77999860657526,-0.0912354269625641
0.78999858871084,-0.0911844325932397
0.799998570846421,-0.0911325915857093
0.809998552982001,-0.0910813994467313
0.819998535117581,-0.0910296583684206
0.829998517253162,-0.0909772961585808
0.839998499388742,-0.0909243146509244
0.849998481524322,-0.0908707762139883
0.859998463659902,-0.090815505648178
0.869998445795483,-0.0907606777038701
0.879998427931063,-0.0907069521009464
0.889998410066643,-0.0906543295756848
0.899998392202223,-0.0906025168785126
0.909998374337804,-0.0905483104734256
0.919998356473384,-0.0904939398673483
0.929998338608964,-0.0904393400565454
0.939998320744544,-0.0903845096630771
0.949998302880124,-0.0903294309383949
0.959998285015705,-0.0902758117770436
0.969998267151285,-0.0902210732929062
0.979998249286865,-0.0901648462284023
0.989998231422446,-0.0901071285583297
0.999998213558026,-0.0900479182594093
1.00999819569361,-0.0899888355914857
1.01999817782919,-0.0899277366044115
1.02999815996477,-0.0898646195520116
1.03999814210035,-0.0897994826906146
1.04999812423593,-0.0897322296732815
1.05999810637151,-0.0896639671467697
1.06999808850709,-0.0895931601157019
1.07999807064267,-0.0895197183075729
1.08999805277825,-0.0894436404033778
1.09999803491383,-0.0893646242786277
1.10999801704941,-0.0892812518849719
1.11999799918499,-0.0891953445114813
1.12999798132057,-0.0891068825427675
1.13999796345615,-0.0890158663508235
1.14999794559173,-0.08892211618562
1.15999792772731,-0.0888231371334179
1.16999790986289,-0.0887213854253217
1.17999789199847,-0.0886170613845359
1.18999787413405,-0.0885101667471194
1.19999785626963,-0.0884008421912723
1.20999783840521,-0.0882898167294558
1.21999782054079,-0.088176061211765
1.22999780267637,-0.0880594141230639
1.23999778481195,-0.0879398769730137
1.24999776694753,-0.0878175411965593
1.25999774908311,-0.0876942582651183
1.26999773121869,-0.0875681510026283
1.27999771335427,-0.0874385528919166
1.28999769548985,-0.0873054646040058
1.29999767762543,-0.0871693005473088
1.30999765976101,-0.0870327753798018
1.31999764189659,-0.0868940341237764
1.32999762403217,-0.0867524158926964
1.33999760616775,-0.0866079218253735
1.34999758830333,-0.0864605435553073
1.35999757043891,-0.0863078389361264
1.3699975525745,-0.0861525018369428
1.37999753471008,-0.0859960420988511
1.38999751684566,-0.0858384611093604
1.39999749898124,-0.0856793921140091
1.40999748111682,-0.0855142919871019
1.4199974632524,-0.0853462996340216
1.42999744538798,-0.0851760669539191
1.43999742752356,-0.0850035946031575
1.44999740965914,-0.0848296096841843
1.45999739179472,-0.0846559522225668
1.4699973739303,-0.0844803533249018
1.47999735606588,-0.0843027907199979
1.48999733820146,-0.0841232664816819
1.49999732033704,-0.083942685214266
1.50999730247262,-0.0837655357437881
1.5199972846082,-0.0835888294490304
1.52999726674378,-0.0834119998005569
1.53999724887936,-0.0832350467954686
1.54999723101494,-0.0830597347829184
1.55999721315052,-0.082889059156195
1.5699971952861,-0.0827206493045416
1.57999717742168,-0.0825544497546236
1.58999715955726,-0.0823904578239302
1.59999714169284,-0.0822271969013495
1.60999712382842,-0.082063747265083
1.619997105964,-0.0819018256874015
1.62999708809958,-0.0817417091617355
1.63999707023516,-0.0815833918344013
1.64999705237074,-0.0814261236078815
1.65999703450632,-0.0812679995469469
1.6699970166419,-0.081109770438263
1.67999699877748,-0.0809500717078696
1.68999698091306,-0.0807888970203764
1.69999696304864,-0.0806263699559501
1.70999694518422,-0.0804631152337299
1.7199969273198,-0.0802981514954368
1.72999690945538,-0.0801304017493647
1.73999689159097,-0.0799598614165834
1.74999687372655,-0.0797855214775124
1.75999685586213,-0.0796087864524029
1.76999683799771,-0.0794271523151794
1.77999682013329,-0.0792423332185277
1.78999680226887,-0.0790543291397439
1.79999678440445,-0.0788633293241734
1.80999676654003,-0.0786682434521088
1.81999674867561,-0.0784685459963068
1.82999673081119,-0.0782657359315576
1.83999671294677,-0.0780598162823662
1.84999669508235,-0.0778511963433407
1.85999667721793,-0.077643779231232
1.86999665935351,-0.0774344061563979
1.87999664148909,-0.077223167238857
1.88999662362467,-0.0770100655521282
1.89999660576025,-0.0767953840638869
1.90999658789583,-0.0765809294645504
1.91999657003141,-0.0763660357400991
1.92999655216699,-0.076150810364658
1.93999653430257,-0.0759352551159679
1.94999651643815,-0.0757193388175702
1.95999649857373,-0.0755020473506332
1.96999648070931,-0.0752844982924357
1.97999646284489,-0.0750667256990604
1.98999644498047,-0.0748487305405088
1.99999642711605,-0.0746305137870839
2.00999640925163,-0.0744116117825884
2.01999639138721,-0.0741923149422519
2.02999637352279,-0.0739726243827505
2.03999635565837,-0.07375254122148
2.04999633779395,-0.0735320718755521
2.05999631992953,-0.0733111494422202
2.06999630206511,-0.073089936166912
2.07999628420069,-0.0728684510921661
2.08999626633627,-0.0726466961210115
2.09999624847185,-0.0724247758390892
2.10999623060743,-0.0722026153717809
2.11999621274301,-0.0719807402047798
2.12999619487859,-0.0717593110221334
2.13999617701418,-0.071538331132826
2.14999615914976,-0.071318266754294
2.15999614128534,-0.0710989944465455
2.16999612342092,-0.0708816767342142
2.1799961055565,-0.0706665913757455
2.18999608769208,-0.0704537424454455
2.19999606982766,-0.0702450184162399
2.20999605196324,-0.0700380327311191
2.21999603409882,-0.0698355592182565
2.2299960162344,-0.0696363968865794
2.23999599836998,-0.0694405437929259
2.24999598050556,-0.0692477605630527
2.25999596264114,-0.0690577467285174
2.26999594477672,-0.0688710837998796
2.2799959269123,-0.0686864035491405
2.28999590904788,-0.0685037007172965
2.29999589118346,-0.0683226666846083
2.30999587331904,-0.0681422496999913
2.31999585545462,-0.0679627759808807
2.3299958375902,-0.0677833171345462
2.33999581972578,-0.0676038671106911
2.34999580186136,-0.0674239869108606
2.35999578399694,-0.0672424492442201
2.36999576613252,-0.067059659359012
2.3799957482681,-0.0668749120997869
2.38999573040368,-0.066688202017513
2.39999571253926,-0.0664988644711853
2.40999569467484,-0.0663053008006708
2.41999567681042,-0.0661085835275963
2.429995658946,-0.0659080846590266
2.43999564108158,-0.0657038014540176
2.44999562321716,-0.0654957573849328
2.45999560535274,-0.0652822400650253
2.46999558748832,-0.0650644929714827
2.4799955696239,-0.0648432637608372
2.48999555175948,-0.0646185542520233
2.49999553389506,-0.0643909905889407
2.50999551603064,-0.0641592307600751
2.51999549816623,-0.0639253707236611
2.5299954803018,-0.0636897011176206
2.53999546243739,-0.063452225676519
2.54999544457297,-0.0632138554438739
2.55999542670855,-0.0629745545101272
2.56999540884413,-0.0627340780480312
2.57999539097971,-0.0624928951215828
2.58999537311529,-0.0622510080556774
2.59999535525087,-0.0620087182556158
2.60999533738645,-0.0617660569006016
2.61999531952203,-0.0615229545797734
2.62999530165761,-0.0612794837773727
2.63999528379319,-0.0610356458510211
2.64999526592877,-0.0607915091157163
2.65999524806435,-0.0605470592953718
2.66999523019993,-0.06030228905588
2.67999521233551,-0.0600572005046051
2.68999519447109,-0.0598117947484224
2.69999517660667,-0.0595659458875526
2.70999515874225,-0.0593198148052106
2.71999514087783,-0.059073483523054
2.72999512301341,-0.0588269157714576
2.73999510514899,-0.058580113159182
2.74999508728457,-0.0583330499560932
2.75999506942015,-0.0580856197018017
2.76999505155573,-0.0578384779583297
2.77999503369131,-0.0575916443398122
2.78999501582689,-0.0573451218557225
2.79999499796247,-0.0570994860096176
2.80999498009805,-0.0568540853655425
2.81999496223363,-0.05660989307639
2.82999494436921,-0.0563675857299888
2.83999492650479,-0.0561271678189162
2.84999490864037,-0.0558890438808643
2.85999489077595,-0.0556552400633445
2.86999487291153,-0.0554246233247212
2.87999485504711,-0.0551978529543703
2.88999483718269,-0.0549749293833501
2.89999481931827,-0.054755570639134
2.90999480145386,-0.0545402143822305
2.91999478358944,-0.054328517051157
2.92999476572502,-0.0541199353435061
2.9399947478606,-0.0539144641662061
2.94999472999618,-0.0537118985318307
2.95999471213176,-0.0535105663133301
2.96999469426734,-0.0533106186130225
2.97999467640292,-0.05311153858107
2.9899946585385,-0.0529133191969459
2.99999464067408,-0.0527159534391608
3.00999462280966,-0.0525181540353979
3.01999460494524,-0.0523187324906092
3.02999458708082,-0.0521176817164633
3.0399945692164,-0.0519149946264041
3.04999455135198,-0.051710150298826
3.05999453348756,-0.0515032266294626
3.06999451562314,-0.0512925809566281
3.07999449775872,-0.0510780096181443
3.0899944798943,-0.0508595073230085
3.09999446202988,-0.0506365068260948
3.10999444416546,-0.0504082736881441
3.11999442630104,-0.0501757900433147
3.12999440843662,-0.0499388038540759
3.1399943905722,-0.0496973153141508
3.14999437270778,-0.0494519336396519
3.15999435484336,-0.049201073579306
3.16999433697894,-0.0489471925385906
3.17999431911452,-0.0486907281460155
3.1899943012501,-0.0484316847238491
3.19999428338568,-0.0481707539315752
3.20999426552126,-0.0479088763958419
3.21999424765684,-0.0476454244136858
3.22999422979242,-0.0473810003073988
3.239994211928,-0.0471156069678264
3.24999419406358,-0.0468492867652667
3.25999417619916,-0.0465828187103645
3.26999415833474,-0.0463159954662682
3.27999414047032,-0.0460487931831273
3.2899941226059,-0.0457812134394817
3.29999410474149,-0.0455132390707756
3.30999408687707,-0.0452450070899879
3.31999406901265,-0.0449766178666147
3.32999405114823,-0.0447079668181004
3.33999403328381,-0.044439055143744
3.34999401541939,-0.0441698856361858
3.35999399755497,-0.0439004430648882
3.36999397969055,-0.0436306889782127
3.37999396182613,-0.0433607407301884
3.38999394396171,-0.043090599921893
3.39999392609729,-0.0428203440220609
3.40999390823287,-0.0425497882009852
3.41999389036845,-0.0422790387253636
3.42999387250403,-0.0420084645446899
3.43999385463961,-0.0417380684308393
3.44999383677519,-0.0414683878699751
3.45999381891077,-0.0411990652935351
3.46999380104635,-0.0409301063585575
3.47999378318193,-0.0406625895517505
3.48999376531751,-0.0403965193015447
3.49999374745309,-0.0401322475557285
3.50999372958867,-0.0398722861740852
3.51999371172425,-0.0396150197669314
3.52999369385983,-0.0393611016320715
3.53999367599541,-0.0391105339040824
3.54999365813099,-0.038864264462265
3.55999364026657,-0.038623936489969
3.56999362240215,-0.0383873643605682
3.57999360453773,-0.0381545527189039
3.58999358667331,-0.0379254983541118
3.59999356880889,-0.0376995653363422
3.60999355094447,-0.0374781164490914
3.61999353308005,-0.0372592006892177
3.62999351521563,-0.0370420534054004
3.63999349735121,-0.0368266681258978
3.64999347948679,-0.0366122960182339
3.65999346162238,-0.0363993582684122
3.66999344375795,-0.0361865976154578
3.67999342589353,-0.0359735610026429
3.68999340802911,-0.0357602413360303
3.6999933901647,-0.0355454119321198
3.70999337230028,-0.0353294704063828
3.71999335443586,-0.0351111767963878
3.72999333657144,-0.0348901346951483
3.73999331870702,-0.0346663384349926
3.7499933008426,-0.0344377662477043
3.75999328297818,-0.0342053883541488
3.76999326511376,-0.0339679385704174
3.77999324724934,-0.0337250173230417
3.78999322938492,-0.0334766231816741
3.7999932115205,-0.0332213366287938
3.80999319365608,-0.0329622226980549
3.81999317579166,-0.0326965700356836
3.82999315792724,-0.0324265318880214
3.83999314006282,-0.0321521130435468
3.8499931221984,-0.031873680013319
3.85999310433398,-0.0315926440901468
3.86999308646956,-0.0313092054623866
3.87999306860514,-0.031024033636539
3.88999305074072,-0.0307371320976017
3.8999930328763,-0.0304487338705707
3.90999301501188,-0.0301596008349911
3.91999299714746,-0.0298696739328783
3.92999297928304,-0.0295791034316233
3.93999296141862,-0.0292878912268973
3.9499929435542,-0.0289960748403325
3.95999292568978,-0.0287038946564162
3.96999290782536,-0.0284113564773557
3.97999288996094,-0.028118476362302
3.98999287209652,-0.0278252553852762
3.9999928542321,-0.0275316946207502
4.00999283636768,-0.0272377946133563
4.01999281850326,-0.0269436850336536
4.02999280063885,-0.0266493670391887
4.03999278277442,-0.0263548417879886
4.04999276491,-0.0260601271451225
4.05999274704558,-0.025765216334834
4.06999272918116,-0.025470360250708
4.07999271131675,-0.0251756002774713
4.08999269345233,-0.024880938634466
4.09999267558791,-0.0245865325498076
4.10999265772349,-0.0242923657089435
4.11999263985907,-0.0239990950043846
4.12999262199465,-0.0237069510208828
4.13999260413023,-0.023415937802333
4.14999258626581,-0.0231266429759389
4.15999256840139,-0.0228390414863504
4.16999255053697,-0.0225544283778385
4.17999253267255,-0.0222731424814148
4.18999251480813,-0.0219951887258926
4.19999249694371,-0.0217217800459558
4.20999247907929,-0.0214556695545621
4.21999246121487,-0.0211935750907978
4.22999244335045,-0.0209361040655065
4.23999242548603,-0.0206832545223495
4.24999240762161,-0.0204342572188522
4.25999238975719,-0.0201898848855281
4.26999237189277,-0.0199501853085445
4.27999235402835,-0.019713499042161
4.28999233616393,-0.0194798192524315
4.29999231829951,-0.0192487308003598
4.30999230043509,-0.0190181518128244
4.31999228257067,-0.0187895964240786
4.32999226470625,-0.0185614545467342
4.33999224684183,-0.0183337187791202
4.34999222897741,-0.0181053200700479
4.35999221111299,-0.0178762712908474
4.36999219324857,-0.0176453839244157
4.37999217538415,-0.017412191861214
4.38999215751973,-0.017176687596023
4.39999213965531,-0.0169371880297141
4.40999212179089,-0.016692559962089
4.41999210392647,-0.0164447372948334
4.42999208606205,-0.0161923313038826
4.43999206819764,-0.0159353383788084
4.44999205033321,-0.015673823706025
4.45999203246879,-0.0154057227194336
4.46999201460438,-0.0151326279938223
4.47999199673996,-0.0148556626251069
4.48999197887554,-0.0145748285842493
4.49999196101112,-0.0142910256171349
4.5099919431467,-0.0140023320531338
4.51999192528228,-0.0137119407412612
4.52999190741786,-0.0134203089124815
4.53999188955344,-0.0131274414082313
4.54999187168902,-0.0128343042863971
4.5599918538246,-0.0125413961712615
4.56999183596018,-0.0122476754599923
4.57999181809576,-0.0119534342244519
4.58999180023134,-0.0116586767492327
4.59999178236692,-0.0113632573977288
4.6099917645025,-0.0110671584224891
4.61999174663808,-0.0107696457695443
4.62999172877366,-0.0104706948701862
4.63999171090924,-0.0101703082221588
4.64999169304482,-0.00986901820792496
4.6599916751804,-0.00956613460789848
4.66999165731598,-0.0092624543458542
4.67999163945156,-0.00895799002489853
4.68999162158714,-0.00865274243320633
4.69999160372272,-0.00834698546235117
4.7099915858583,-0.00804062202640354
4.71999156799388,-0.00773413242445983
4.72999155012946,-0.00742760698689809
4.73999153226504,-0.00712104688116653
4.74999151440062,-0.0068145115300044
4.7599914965362,-0.00650776201388287
4.76999147867178,-0.00620181237087974
4.77999146080736,-0.00589674436493968
4.78999144294294,-0.00559256104201283
4.79999142507852,-0.00528998602876664
4.80999140721411,-0.00498821450217133
4.81999138934968,-0.00468842038899458
4.82999137148526,-0.00439144457590109
4.83999135362084,-0.00409729206135159
4.84999133575642,-0.00380647723114509
4.85999131789201,-0.00352178024721344
4.86999130002759,-0.00324147723165695
4.87999128216317,-0.00296631723338908
4.88999126429875,-0.00269630055544578
4.89999124643433,-0.00243111593759164
4.90999122856991,-0.00217188630108057
4.91999121070549,-0.00191756982626216
4.92999119284107,-0.00166745637348671
4.93999117497665,-0.00142153988189012
4.94999115711223,-0.00117959190467288
4.95999113924781,-0.000940173951806538
4.96999112138339,-0.000702887261827692
4.97999110351897,-0.000467082005792776
4.98999108565455,-0.000232750064372928
4.99999106779013,1.16683374073443E-07
5.00999104992571,0.000232992494153803
5.01999103206129,0.00046735131027612
5.02999101419687,0.000703201252876228
5.03999099633245,0.000940550441442884
5.04999097846803,0.00118005079616139
5.05999096060361,0.00142210043132263
5.06999094273919,0.00166813270758496
5.07999092487477,0.00191837661520974
5.08999090701035,0.00217283818569023
5.09999088914593,0.00243222105844611
5.10999087128151,0.00269757406419918
5.11999085341709,0.0029677545720992
5.12999083555267,0.00324306969434941
5.13999081768825,0.00352351907973359
5.14999079982383,0.00380834611498239
5.15999078195941,0.00409925771754684
5.16999076409499,0.00439349633815344
5.17999074623057,0.00469054444316675
5.18999072836615,0.0049903970383507
5.19999071050173,0.00529221729407884
5.20999069263731,0.00559483014851231
5.21999067477289,0.00589904060321366
5.22999065690848,0.00620412951101862
5.23999063904406,0.0065100938386121
5.24999062117964,0.00681685239099504
5.25999060331522,0.00712339363728069
5.2699905854508,0.0074299579492638
5.27999056758638,0.00773648797567548
5.28999054972196,0.0080429825571883
5.29999053185754,0.0083493495684917
5.30999051399312,0.00865510075404443
5.3199904961287,0.00896034157156344
5.32999047826428,0.00926479923181609
5.33999046039986,0.00956847294922128
5.34999044253544,0.00987135003731111
5.35999042467102,0.0101726266949331
