"Distance*$Poles/(3.14159265358979*($DiaGap-$AirGap)*2*50)*1s [ms]",Flux_Lines [] - Time='0.02s'
0,-0.097997970879791
0.00999999183168181,-0.0979981461625588
0.0199999836633636,-0.0979975790688076
0.0299999754950454,-0.0979962694987176
0.0399999673267272,-0.0979942173543904
0.049999959158409,-0.0979914547499005
0.0599999509900909,-0.0979892940881442
0.0699999428217727,-0.0979865913768239
0.0799999346534545,-0.0979833176504447
0.0899999264851363,-0.0979794731088255
0.0999999183168181,-0.09797505986887
0.1099999101485,-0.0979696015972811
0.119999901980182,-0.097963969083878
0.129999893811864,-0.0979582269208088
0.139999885643545,-0.097952375261932
0.149999877475227,-0.0979462804879424
0.159999869306909,-0.0979389709974786
0.169999861138591,-0.0979312857946361
0.179999852970273,-0.097923278177379
0.189999844801954,-0.0979149483114416
0.199999836633636,-0.0979063857751864
0.209999828465318,-0.0978980627200811
0.219999820297,-0.0978893789835876
0.229999812128682,-0.0978802426286318
0.239999803960363,-0.0978706536890134
0.249999795792045,-0.0978606344898173
0.259999787623727,-0.0978508236267722
0.269999779455409,-0.0978407195738825
0.279999771287091,-0.0978301328093037
0.289999763118772,-0.0978190630044123
0.299999754950454,-0.0978075682458611
0.309999746782136,-0.0977961558683007
0.319999738613818,-0.0977844190903547
0.3299997304455,-0.0977722708972819
0.339999722277182,-0.0977597110522471
0.349999714108863,-0.0977465615131883
0.359999705940545,-0.0977323877399596
0.369999697772227,-0.097717777464046
0.379999689603909,-0.097702848324821
0.389999681435591,-0.0976875998506098
0.399999673267272,-0.0976716636466902
0.409999665098954,-0.0976545719564995
0.419999656930636,-0.0976367516651858
0.429999648762318,-0.0976181382549003
0.439999640594,-0.0975987315183111
0.449999632425681,-0.0975786061839281
0.459999624257363,-0.0975578732319107
0.469999616089045,-0.0975362877529783
0.479999607920727,-0.0975137667966588
0.489999599752409,-0.097490310659659
0.499999591584091,-0.0974660473430318
0.509999583415772,-0.0974414788652777
0.519999575247454,-0.0974160391530292
0.529999567079136,-0.0973896643017522
0.539999558910818,-0.0973623546429258
0.5499995507425,-0.0973343375406426
0.559999542574181,-0.0973062614868295
0.569999534405863,-0.0972775125566221
0.579999526237545,-0.0972480415441621
0.589999518069227,-0.0972178488756861
0.599999509900909,-0.0971868460794653
0.60999950173259,-0.0971545956527357
0.619999493564272,-0.0971217126028283
0.629999485395954,-0.0970885456407756
0.639999477227636,-0.0970550951809434
0.649999469059317,-0.0970211426174272
0.659999460890999,-0.0969854906262977
0.669999452722681,-0.0969490312071946
0.679999444554363,-0.0969118378184596
0.689999436386045,-0.0968739106551708
0.699999428217727,-0.0968352171536014
0.709999420049409,-0.0967963006091817
0.71999941188109,-0.0967564415477047
0.729999403712772,-0.0967154752365465
0.739999395544454,-0.0966734022687939
0.749999387376136,-0.0966303451736874
0.759999379207817,-0.0965873008086584
0.769999371039499,-0.0965431211668391
0.779999362871181,-0.0964976283057335
0.789999354702863,-0.0964508230693845
0.799999346534545,-0.096403158222411
0.809999338366227,-0.0963559957617973
0.819999330197908,-0.0963082228997408
0.82999932202959,-0.0962597708204376
0.839999313861272,-0.0962106410442028
0.849999305692954,-0.0961608534627988
0.859999297524636,-0.0961093198610235
0.869999289356317,-0.0960579751588538
0.879999281187999,-0.0960074772805161
0.889999273019681,-0.0959578272054995
0.899999264851363,-0.0959088417592288
0.909999256683045,-0.0958576259753177
0.919999248514726,-0.0958062677232246
0.929999240346408,-0.0957546440905253
0.93999923217809,-0.0957027538527759
0.949999224009772,-0.0956506177933857
0.959999215841454,-0.0956003944552464
0.969999207673135,-0.0955489213045661
0.979999199504817,-0.0954959225038654
0.989999191336499,-0.0954413967735586
0.999999183168181,-0.0953853428370302
1.00999917499986,-0.0953293015773786
1.01999916683154,-0.0952716419595812
1.02999915866323,-0.0952123624554732
1.03999915049491,-0.0951514615407044
1.04999914232659,-0.0950888052986875
1.05999913415827,-0.095024095919725
1.06999912598995,-0.0949569905357636
1.07999911782164,-0.0948874607134637
1.08999910965332,-0.0948155052927475
1.099999101485,-0.0947408125521225
1.10999909331668,-0.0946633985227328
1.11999908514836,-0.0945832649744713
1.12999907698004,-0.0945003212967333
1.13999906881173,-0.0944145682369488
1.14999906064341,-0.0943261066373373
1.15999905247509,-0.0942347190399032
1.16999904430677,-0.0941408646092211
1.17999903613845,-0.0940445754670207
1.18999902797014,-0.0939458534298324
1.19999901980182,-0.0938447826387517
1.2099990116335,-0.0937414973017767
1.21999900346518,-0.0936358113957169
1.22999899529686,-0.0935277684046075
1.23999898712854,-0.0934173698713332
1.24999897896023,-0.0933045443843025
1.25999897079191,-0.093189290784173
1.26999896262359,-0.0930716035124374
1.27999895445527,-0.0929513406823261
1.28999894628695,-0.0928285036009721
1.29999893811863,-0.092703040614255
1.30999892995032,-0.0925746852770975
1.319998921782,-0.0924436006681749
1.32999891361368,-0.0923095850859476
1.33999890544536,-0.0921726398304037
1.34999889727704,-0.0920326439685866
1.35999888910873,-0.0918895919732526
1.36999888094041,-0.0917433261810289
1.37999887277209,-0.0915937944547659
1.38999886460377,-0.0914409980482246
1.39999885643545,-0.0912848747750393
1.40999884826714,-0.0911252798016124
1.41999884009882,-0.0909623911635192
1.4299988319305,-0.0907961980660847
1.43999882376218,-0.0906267019593985
1.44999881559386,-0.0904541659615547
1.45999880742554,-0.0902785996986222
1.46999879925723,-0.0900999965896767
1.47999879108891,-0.0899189620432313
1.48999878292059,-0.089735498003612
1.49999877475227,-0.0895506197792549
1.50999876658395,-0.0893642267831253
1.51999875841563,-0.0891765610483845
1.52999875024732,-0.088988585181795
1.539998742079,-0.0888003004376958
1.54999873391068,-0.0886131025460809
1.55999872574236,-0.0884280539236432
1.56999871757404,-0.0882432742447727
1.57999870940573,-0.0880595888233304
1.58999870123741,-0.0878769943571075
1.59999869306909,-0.0876950184954945
1.60999868490077,-0.0875151794204703
1.61999867673245,-0.0873366671017738
1.62999866856414,-0.0871586729195321
1.63999866039582,-0.0869811902834154
1.6499986522275,-0.0868039984825134
1.65999864405918,-0.0866258995019424
1.66999863589086,-0.0864477537099795
1.67999862772254,-0.0862686657851696
1.68999861955423,-0.0860886292019594
1.69999861138591,-0.085906779154437
1.70999860321759,-0.0857232840565572
1.71999859504927,-0.0855373376680048
1.72999858688095,-0.0853486072858601
1.73999857871263,-0.0851570872010638
1.74999857054432,-0.0849614256129202
1.759998562376,-0.084762223320016
1.76999855420768,-0.0845599417581291
1.77999854603936,-0.0843540636011409
1.78999853787104,-0.0841445876770542
1.79999852970273,-0.0839320767203826
1.80999852153441,-0.083714606772759
1.81999851336609,-0.0834941275130789
1.82999850519777,-0.0832713914349826
1.83999849702945,-0.0830464017572839
1.84999848886113,-0.0828194015286668
1.85999848069282,-0.0825913085608605
1.8699984725245,-0.0823619265165952
1.87999846435618,-0.0821316117217578
1.88999845618786,-0.0819003665995743
1.89999844801954,-0.0816682447487257
1.90999843985123,-0.0814356459604084
1.91999843168291,-0.0812025366558349
1.92999842351459,-0.0809689706146952
1.93999841534627,-0.0807349492649089
1.94999840717795,-0.0805004736722514
1.95999839900963,-0.0802656028467107
1.96999839084132,-0.0800303148068767
1.979998382673,-0.0797946094635653
1.98999837450468,-0.079558487768486
1.99999836633636,-0.0793219506741523
2.00999835816804,-0.0790849792211441
2.01999834999973,-0.0788475587857088
2.02999834183141,-0.0786096903605544
2.03999833366309,-0.0783713749394672
2.04999832549477,-0.0781326137360459
2.05999831732645,-0.0778933860839767
2.06999830915813,-0.0776537692600515
2.07999830098982,-0.0774137669937972
2.0899982928215,-0.0771733808659638
2.09999828465318,-0.0769326722624742
2.10999827648486,-0.0766915876360797
2.11999826831654,-0.0764506141141018
2.12999826014823,-0.0762098149987147
2.13999825197991,-0.0759691930444877
2.14999824381159,-0.0757291453901645
2.15999823564327,-0.0754894163163876
2.16999822747495,-0.0752511084225219
2.17999821930663,-0.0750144990511708
2.18999821113832,-0.0747795919818761
2.19999820297,-0.0745472525055402
2.20999819480168,-0.074319604605836
2.21999818663336,-0.074094555681737
2.22999817846504,-0.0738727642307196
2.23999817029673,-0.073654229394755
2.24999816212841,-0.0734383857803962
2.25999815396009,-0.0732257904135525
2.26999814579177,-0.0730170587673885
2.27999813762345,-0.0728106874055524
2.28999812945513,-0.0726066706238452
2.29999812128682,-0.0724046244387143
2.3099981131185,-0.072203589926641
2.31999810495018,-0.0720037003834453
2.32999809678186,-0.0718039264421361
2.33999808861354,-0.0716042617572367
2.34999808044523,-0.0714033549665609
2.35999807227691,-0.0712024715989712
2.36999806410859,-0.0709998386834816
2.37999805594027,-0.0707951228540295
2.38999804777195,-0.0705883178916981
2.39999803960363,-0.070377993603385
2.40999803143532,-0.0701633366553188
2.419998023267,-0.0699459865508879
2.42999801509868,-0.0697249178440284
2.43999800693036,-0.0695001283965315
2.44999799876204,-0.0692722557143698
2.45999799059373,-0.0690388463325815
2.46999798242541,-0.0688011752604288
2.47999797425709,-0.0685603452573466
2.48999796608877,-0.068316359493383
2.49999795792045,-0.0680701086455259
2.50999794975213,-0.0678218399054568
2.51999794158382,-0.0675712413145885
2.5299979334155,-0.0673192484128604
2.53999792524718,-0.0670658646439483
2.54999791707886,-0.0668117462477885
2.55999790891054,-0.0665569328967879
2.56999790074222,-0.066301266288591
2.57999789257391,-0.0660450385836949
2.58999788440559,-0.0657882518535704
2.59999787623727,-0.0655309904573397
2.60999786806895,-0.0652735973840315
2.61999785990063,-0.0650157918029707
2.62999785173232,-0.0647575910104896
2.639997843564,-0.064498996189582
2.64999783539568,-0.0642399973439684
2.65999782722736,-0.0639806151848462
2.66999781905904,-0.0637208723177261
2.67999781089072,-0.0634607397200366
2.68999780272241,-0.0632002184415472
2.69999779455409,-0.0629392294463024
2.70999778638577,-0.062677841353045
2.71999777821745,-0.062416101534796
2.72999777004913,-0.0621540001659617
2.73999776188082,-0.0618915386270324
2.7499977537125,-0.0616286915385773
2.75999774554418,-0.0613653370311169
2.76999773737586,-0.061102003665966
2.77999772920754,-0.0608387103494456
2.78999772103922,-0.0605754596132577
2.79999771287091,-0.060312759917602
2.80999770470259,-0.0600500729829482
2.81999769653427,-0.0597879658668391
2.82999768836595,-0.059527184325007
2.83999768019763,-0.059267732421465
2.84999767202932,-0.0590098429220415
2.859997663861,-0.0587555015600483
2.86999765569268,-0.0585039292935268
2.87999764752436,-0.0582558892019017
2.88999763935604,-0.0580113823367511
2.89999763118772,-0.0577701860018742
2.90999762301941,-0.0575327030029863
2.91999761485109,-0.0572993486372222
2.92999760668277,-0.0570693912967059
2.93999759851445,-0.0568428257660656
2.94999759034613,-0.0566195543996176
2.95999758217782,-0.0563982417671776
2.9699975740095,-0.0561784040204001
2.97999756584118,-0.055959642893143
2.98999755767286,-0.0557419511400532
2.99999754950454,-0.0555253215139092
3.00999754133622,-0.0553084823191154
3.01999753316791,-0.0550901926309903
3.02999752499959,-0.0548704452633144
3.03999751683127,-0.0546492330335447
3.04999750866295,-0.0544261371692762
3.05999750049463,-0.0542006282735065
3.06999749232632,-0.053971306333135
3.079997484158,-0.0537380697419838
3.08999747598968,-0.0535009133135607
3.09999746782136,-0.0532590742482892
3.10999745965304,-0.0530129908905274
3.11999745148472,-0.0527629514437854
3.12999744331641,-0.0525087214622927
3.13999743514809,-0.0522503020990474
3.14999742697977,-0.0519884288831772
3.15999741881145,-0.0517222057829238
3.16999741064313,-0.0514537438849913
3.17999740247482,-0.0511832788241347
3.1899973943065,-0.0509108147472413
3.19999738613818,-0.0506370771379452
3.20999737796986,-0.0503626071971801
3.21999736980154,-0.0500868723833077
3.22999736163322,-0.049810376184439
3.23999735346491,-0.0495331211784636
3.24999734529659,-0.049255127998868
3.25999733712827,-0.0489769730546921
3.26999732895995,-0.0486984818403521
3.27999732079163,-0.0484196137985313
3.28999731262331,-0.0481403703200377
3.299997304455,-0.0478607510263052
3.30999729628668,-0.0475808577836372
3.31999728811836,-0.0473007322095519
3.32999727995004,-0.0470203003698056
3.33999727178172,-0.0467395633083731
3.34999726361341,-0.0464584986393222
3.35999725544509,-0.0461771099756532
3.36999724727677,-0.0458954721194184
3.37999723910845,-0.0456135850425207
3.38999723094013,-0.045331449946825
3.39999722277181,-0.0450491029157549
3.4099972146035,-0.0447661821527245
3.41999720643518,-0.0444831144029587
3.42999719826686,-0.0442000519317517
3.43999719009854,-0.0439169969574292
3.44999718193022,-0.0436342873785666
3.45999717376191,-0.0433517015699376
3.46999716559359,-0.0430693222941919
3.47999715742527,-0.0427879379545964
3.48999714925695,-0.0425075523062316
3.49999714108863,-0.0422292789727369
3.50999713292032,-0.0419528745673034
3.519997124752,-0.0416784797819701
3.52999711658368,-0.0414071066896929
3.53999710841536,-0.041138758737499
3.54999710024704,-0.0408748506341541
3.55999709207872,-0.0406170733490688
3.56999708391041,-0.0403624296868439
3.57999707574209,-0.0401116540095675
3.58999706757377,-0.0398647437781977
3.59999705940545,-0.0396207050766322
3.60999705123713,-0.0393815358261636
3.61999704306882,-0.0391463077118114
3.6299970349005,-0.0389135185698381
3.63999702673218,-0.0386831616588345
3.64999701856386,-0.0384544493041332
3.65999701039554,-0.0382257130883675
3.66999700222722,-0.0379986487801688
3.67999699405891,-0.0377711515456498
3.68999698589059,-0.0375432147904737
3.69999697772227,-0.03731439492149
3.70999696955395,-0.0370810544263073
3.71999696138563,-0.0368455024964376
3.72999695321731,-0.0366058404540032
3.739996945049,-0.0363620634179796
3.74999693688068,-0.036114260249069
3.75999692871236,-0.0358608007069449
3.76999692054404,-0.0356007199297941
3.77999691237572,-0.0353353454635929
3.78999690420741,-0.0350646777988245
3.79999689603909,-0.0347892879333722
3.80999688787077,-0.0345094962816717
3.81999687970245,-0.034224746285058
3.82999687153413,-0.0339367486079416
3.83999686336581,-0.0336455073908666
3.8499968551975,-0.033351398198969
3.85999684702918,-0.0330558479650943
3.86999683886086,-0.0327585287910153
3.87999683069254,-0.0324599928792831
3.88999682252422,-0.032160243198363
3.89999681435591,-0.0318593641595905
3.90999680618759,-0.0315579173827726
3.91999679801927,-0.0312559480672586
3.92999678985095,-0.0309535486302833
3.93999678168263,-0.0306507206255177
3.94999677351431,-0.0303474756249961
3.959996765346,-0.0300438601308158
3.96999675717768,-0.0297399827243006
3.97999674900936,-0.0294358523900061
3.98999674084104,-0.0291314700174641
3.99999673267272,-0.0288268364966502
4.00999672450441,-0.0285220006650545
4.01999671633609,-0.0282170082837179
4.02999670816777,-0.027911860299593
4.03999669999945,-0.0276065576601274
4.04999669183113,-0.027301109965491
4.05999668366281,-0.0269956325092087
4.0699966754945,-0.0266901629366833
4.07999666732618,-0.0263847131532331
4.08999665915786,-0.0260792848999112
4.09999665098954,-0.0257739676366389
4.10999664282122,-0.0254688222262939
4.11999663465291,-0.0251643995762592
4.12999662648459,-0.0248607795664864
4.13999661831627,-0.0245579655512664
4.14999661014795,-0.0242564991675133
4.15999660197963,-0.0239560603570225
4.16999659381132,-0.0236580524399034
4.179996585643,-0.0233628400333431
4.18999657747468,-0.0230704278827853
4.19999656930636,-0.0227825173248751
4.20999656113804,-0.0224984275665298
4.21999655296972,-0.0222183534340284
4.2299965448014,-0.0219428678628637
4.23999653663309,-0.0216719716374345
4.24999652846477,-0.0214071164424847
4.25999652029645,-0.0211468870071231
4.26999651212813,-0.0208898035454237
4.27999650395981,-0.0206359737744081
4.2899964957915,-0.0203853921143596
4.29999648762318,-0.0201366247595181
4.30999647945486,-0.019891657291241
4.31999647128654,-0.0196474134761287
4.32999646311822,-0.0194035482297872
4.33999645494991,-0.019160053633416
4.34999644678159,-0.0189148216743711
4.35999643861327,-0.0186697395735253
4.36999643044495,-0.0184229925714995
4.37999642227663,-0.0181737395618607
4.38999641410831,-0.0179219731146223
4.39999640594,-0.0176659988782923
4.40999639777168,-0.0174048283512436
4.41999638960336,-0.0171404849167721
4.42999638143504,-0.0168717850825804
4.43999637326672,-0.0165987260573801
4.44999636509841,-0.0163221533308543
4.45999635693009,-0.0160389482911669
4.46999634876177,-0.0157509383281678
4.47999634059345,-0.0154597146128253
4.48999633242513,-0.0151652807705197
4.49999632425681,-0.0148687919662189
4.5099963160885,-0.0145705269639757
4.51999630792018,-0.0142703018392412
4.52999629975186,-0.0139693355973803
4.53999629158354,-0.0136676329754324
4.54999628341522,-0.0133655909971224
4.55999627524691,-0.0130635788586485
4.56999626707859,-0.0127605124257666
4.57999625891027,-0.012456468214982
4.58999625074195,-0.0121514499574867
4.59999624257363,-0.0118451092753524
4.60999623440531,-0.011537542166961
4.619996226237,-0.0112286911486757
4.62999621806868,-0.0109186245254992
4.63999620990036,-0.0106073433914297
4.64999620173204,-0.010294937430688
4.65999619356372,-0.00998193264616981
4.66999618539541,-0.00966832074969889
4.67999617722709,-0.00935423042324185
4.68999616905877,-0.0090396620854373
4.69999616089045,-0.00872473075376306
4.70999615272213,-0.00840938620696654
4.71999614455381,-0.00809401456176598
4.72999613638549,-0.00777865752518501
4.73999612821718,-0.00746331606178274
4.74999612004886,-0.00714800900382928
4.75999611188054,-0.00683249958839976
4.76999610371222,-0.00651756946442112
4.7799960955439,-0.00620328365086783
4.78999608737559,-0.005889644682454
4.79999607920727,-0.00557726465432946
4.80999607103895,-0.0052654832625893
4.81999606287063,-0.00495497896400109
4.82999605470231,-0.00464664823381603
4.839996046534,-0.00434049560222459
4.84999603836568,-0.00403679981646612
4.85999603019736,-0.00373791883321074
4.86999602202904,-0.00344291184669061
4.87999601386072,-0.00315267979076961
4.8899960056924,-0.00286722391699304
4.89999599752409,-0.00258628533977228
4.90999598935577,-0.00231053007238952
4.91999598118745,-0.00204004018424032
4.92999597301913,-0.00177389782620923
4.93999596485081,-0.00151209718856433
4.9499959566825,-0.00125453457663202
4.95999594851418,-0.0010001825466091
4.96999594034586,-0.000747813164616047
4.97999593217754,-0.000496924211606702
4.98999592400922,-0.000247507760791043
4.9999959158409,4.44117858936385E-07
5.00999590767259,0.000248403764839431
5.01999589950427,0.000497840581084419
5.02999589133595,0.000748762469330906
5.03999588316763,0.00100117732900594
5.04999587499931,0.00125559013385503
5.059995866831,0.00151316179685495
5.06999585866268,0.00177496459069507
5.07999585049436,0.00204110390032104
5.08999584232604,0.00231158554983455
5.09999583415772,0.00258732212155461
5.1099958259894,0.00286824804664283
5.11999581782109,0.00315368614485674
5.12999580965277,0.00344389252592596
5.13999580148445,0.00373886594417004
5.14999579331613,0.00403771131292449
5.15999578514781,0.00434141842276177
5.1699957769795,0.0046475812914448
5.17999576881118,0.00495591855761947
5.18999576064286,0.00526642569684083
5.19999575247454,0.00557820582422501
5.20999574430622,0.00589057343809423
5.2199957361379,0.00620420186953347
5.22999572796959,0.00651848246225415
5.23999571980127,0.00683341268041606
5.24999571163295,0.00714892620812281
5.25999570346463,0.00746423332663634
5.26999569529631,0.00777957460193961
5.27999568712799,0.00809493099045961
5.28999567895968,0.00841030152872631
5.29999567079136,0.00872564473781424
5.30999566262304,0.00904057459239436
5.31999565445472,0.00935514029581241
5.3299956462864,0.00966922751572229
5.33999563811809,0.00998283583605904
5.34999562994977,0.0102958359132887
5.35999562178145,0.0106082360017089
5.36999561361313,0.0109195094777377
