"Distance*$Poles/(3.14159265358979*($DiaGap-$AirGap)*2*50)*1s [ms]",Flux_Lines [] - Time='0.02s'
0,-0.0738469064232314
0.0099999815232448,-0.0738470912475363
0.0199999630464896,-0.0738465769273015
0.0299999445697344,-0.0738453633897294
0.0399999260929792,-0.0738434505628283
0.049999907616224,-0.0738408721960774
0.0599998891394688,-0.0738388493203027
0.0699998706627136,-0.07383633739625
0.0799998521859584,-0.0738333067891139
0.0899998337092032,-0.0738297577028543
0.099999815232448,-0.0738256742733288
0.109999796755693,-0.0738206123817883
0.119999778278938,-0.0738153337001412
0.129999759802182,-0.073810027756214
0.139999741325427,-0.073804694884452
0.149999722848672,-0.07379920484391
0.159999704371917,-0.0737924469055506
0.169999685895162,-0.0737853661305361
0.179999667418406,-0.0737780232663581
0.189999648941651,-0.0737704184468133
0.199999630464896,-0.0737626367117204
0.209999611988141,-0.073755117647373
0.219999593511386,-0.0737472495857317
0.229999575034631,-0.0737389446765397
0.239999556557875,-0.0737302029353862
0.24999953808112,-0.0737210544984895
0.259999519604365,-0.0737121409160779
0.26999950112761,-0.0737029171548799
0.279999482650855,-0.0736932182129525
0.289999464174099,-0.0736830438087589
0.299999445697344,-0.0736724663327825
0.309999427220589,-0.0736619012232449
0.319999408743834,-0.0736510660893183
0.329999390267078,-0.0736398522779088
0.339999371790323,-0.0736282596044587
0.349999353313568,-0.0736161680910315
0.359999334836813,-0.0736029800879481
0.369999316360058,-0.0735894058351047
0.379999297883303,-0.0735755506140229
0.389999279406547,-0.0735614139878307
0.399999260929792,-0.0735466327767765
0.409999242453037,-0.0735307458352496
0.419999223976282,-0.0735141636397287
0.429999205499527,-0.0734967933295697
0.439999187022771,-0.0734786346663471
0.449999168546016,-0.0734597457946094
0.459999150069261,-0.0734403792713305
0.469999131592506,-0.0734201613850594
0.47999911311575,-0.0733989901926461
0.489999094638995,-0.0733768659874568
0.49999907616224,-0.0733539907738179
0.509999057685485,-0.0733306292166487
0.51999903920873,-0.0733064049913008
0.529999020731975,-0.073281220730627
0.539999002255219,-0.0732550768312507
0.549998983778464,-0.073228236403423
0.559998965301709,-0.0732012935310758
0.569998946824954,-0.0731736586300365
0.579998928348199,-0.0731452734874402
0.589998909871443,-0.0731161385960695
0.599998891394688,-0.0730862061138254
0.609998872917933,-0.0730548421078959
0.619998854441178,-0.0730230676285189
0.629998835964423,-0.0729909733795408
0.639998817487667,-0.072958559581433
0.649998799010912,-0.072925362338906
0.659998780534157,-0.0728905939213573
0.669998762057402,-0.0728550358577563
0.679998743580647,-0.0728186902065014
0.689998725103891,-0.0727815572369417
0.699998706627136,-0.0727435873252895
0.709998688150381,-0.0727054978883346
0.719998669673626,-0.0726663578988564
0.729998651196871,-0.0726260838048486
0.739998632720115,-0.0725846763650672
0.74999861424336,-0.0725422659806919
0.759998595766605,-0.0724998475680691
0.76999857728985,-0.0724562612201612
0.779998558813095,-0.0724113379418838
0.789998540336339,-0.0723650787407387
0.799998521859584,-0.0723179828378626
0.809998503382829,-0.072271530334813
0.819998484906074,-0.0722245120742512
0.829998466429319,-0.0721768635628741
0.839998447952564,-0.0721285864449046
0.849998429475808,-0.0720797238402433
0.859998410999053,-0.0720290203780651
0.869998392522298,-0.0719786275845127
0.879998374045543,-0.071929154243669
0.889998355568787,-0.0718806010963646
0.899998337092032,-0.0718327095193186
0.909998318615277,-0.071782339698287
0.919998300138522,-0.0717317168925142
0.929998281661767,-0.071680783984711
0.939998263185012,-0.071629539831946
0.949998244708256,-0.0715779634089501
0.959998226231501,-0.0715276436879615
0.969998207754746,-0.0714761787198892
0.979998189277991,-0.0714232226002419
0.989998170801236,-0.0713687735648342
0.99999815232448,-0.0713128298517147
1.00999813384773,-0.0712570174698151
1.01999811537097,-0.0711991686295408
1.02999809689421,-0.0711392818440395
1.03999807841746,-0.0710773556292915
1.0499980599407,-0.0710133104129468
1.05999804146395,-0.0709484988095685
1.06999802298719,-0.0708812284527761
1.07999800451044,-0.0708114122504046
1.08999798603368,-0.0707390491377418
1.09999796755693,-0.0706638563779917
1.10999794908017,-0.0705843554779577
1.11999793060342,-0.0705025409699107
1.12999791212666,-0.0704184118864519
1.13999789364991,-0.0703319685336711
1.14999787517315,-0.0702429986687766
1.1599978566964,-0.0701489296706071
1.16999783821964,-0.0700521699858816
1.17999781974289,-0.0699528925829634
1.18999780126613,-0.0698510988039004
1.19999778278938,-0.0697469602527494
1.20999776431262,-0.0696413348982078
1.21999774583587,-0.0695330090886244
1.22999772735911,-0.0694218087179042
1.23999770888236,-0.0693077348258062
1.2499976904056,-0.0691908956938245
1.25999767192885,-0.0690730254554271
1.26999765345209,-0.0689526854679901
1.27999763497533,-0.0688292750616081
1.28999761649858,-0.0687027941698113
1.29999759802182,-0.0685734135149956
1.30999757954507,-0.0684435884731923
1.31999756106831,-0.0683117947334716
1.32999754259156,-0.0681777835124658
1.3399975241148,-0.0680415550353407
1.34999750563805,-0.0679031060067196
1.35999748716129,-0.0677606190834487
1.36999746868454,-0.0676161831757741
1.37999745020778,-0.0674711120275974
1.38999743173103,-0.0673254059073957
1.39999741325427,-0.0671789074269822
1.40999739477752,-0.0670288421684132
1.41999737630076,-0.0668770556353293
1.42999735782401,-0.0667241585764057
1.43999733934725,-0.0665701511444816
1.4499973208705,-0.0664156661990341
1.45999730239374,-0.0662621961742436
1.46999728391699,-0.0661079130198244
1.47999726544023,-0.065953052041316
1.48999724696348,-0.0657976147626929
1.49999722848672,-0.0656421819476756
1.50999721000997,-0.0654898718478528
1.51999719153321,-0.0653385013910157
1.52999717305645,-0.0651878244350312
1.5399971545797,-0.0650378411480318
1.54999713610294,-0.0648896590173282
1.55999711762619,-0.0647452953332166
1.56999709914943,-0.0646030721749642
1.57999708067268,-0.0644629721580613
1.58999706219592,-0.0643249933916581
1.59999704371917,-0.064187957151762
1.60999702524241,-0.064051379436229
1.61999700676566,-0.0639164289256299
1.6299969882889,-0.0637830170522562
1.63999696981215,-0.063651139471895
1.64999695133539,-0.0635202439246841
1.65999693285864,-0.0633887023802108
1.66999691438188,-0.0632576261177083
1.67999689590513,-0.0631256148028388
1.68999687742837,-0.0629926636585898
1.69999685895162,-0.0628588028661427
1.70999684047486,-0.0627243673923982
1.71999682199811,-0.0625885626021039
1.72999680352135,-0.0624507757114491
1.7399967850446,-0.0623110034213508
1.74999676656784,-0.0621684356430516
1.75999674809109,-0.0620237931268133
1.76999672961433,-0.0618758039430147
1.77999671113757,-0.0617254787504916
1.78999669266082,-0.0615728174802177
1.79999667418406,-0.061417987362849
1.80999665570731,-0.0612600936951069
1.81999663723055,-0.0610986613095415
1.8299966187538,-0.0609348623845347
1.83999660027704,-0.0607686992533464
1.84999658180029,-0.0606004620379421
1.85999656332353,-0.0604333211451714
1.86999654484678,-0.060264632539352
1.87999652637002,-0.0600943642970055
1.88999650789327,-0.0599225189769407
1.89999648941651,-0.0597496036401549
1.90999647093976,-0.0595768886669963
1.919996452463,-0.059403866126023
1.92999643398625,-0.0592305599860921
1.93999641550949,-0.0590569717454205
1.94999639703274,-0.0588830796438739
1.95999637855598,-0.0587080870561836
1.96999636007923,-0.0585329076714422
1.97999634160247,-0.0583575683740798
1.98999632312572,-0.0581820699738774
1.99999630464896,-0.0580064132808507
2.00999628617221,-0.0578302231898583
2.01999626769545,-0.0576537311036741
2.0299962492187,-0.0574769378970467
2.03999623074194,-0.0572998444452791
2.04999621226518,-0.0571224570422266
2.05999619378843,-0.0569447767456936
2.06999617531167,-0.0567668989309206
2.07999615683492,-0.0565888374864568
2.08999613835816,-0.0564105938266218
2.09999611988141,-0.0562322197103315
2.10999610140465,-0.0560539048170016
2.1199960829279,-0.0558757609844755
2.12999606445114,-0.0556980214859858
2.13999604597439,-0.0555206885763826
2.14999602749763,-0.055344063702288
2.15999600902088,-0.0551681770438103
2.16999599054412,-0.0549939107630102
2.17999597206737,-0.054821411106899
2.18999595359061,-0.0546506809700651
2.19999593511386,-0.0544831143228964
2.2099959166371,-0.0543167192419543
2.21999589816035,-0.0541537408077667
2.22999587968359,-0.0539933893942363
2.23999586120684,-0.0538356635786197
2.24999584273008,-0.0536803638267641
2.25999582425333,-0.0535270563014929
2.26999580577657,-0.0533764337337584
2.27999578729982,-0.0532274881130792
2.28999576882306,-0.0530802154954516
2.2999957503463,-0.0529343564827474
2.30999573186955,-0.0527890072680692
2.31999571339279,-0.052644538728924
2.32999569491604,-0.0525002170147127
2.33999567643928,-0.0523560375382626
2.34999565796253,-0.0522116527149807
2.35999563948577,-0.0520661037798433
2.36999562100902,-0.0519197381009929
2.37999560253226,-0.0517719750545328
2.38999558405551,-0.0516228105919919
2.39999556557875,-0.0514717507729245
2.409995547102,-0.051317693253047
2.41999552862524,-0.0511614106491938
2.42999551014849,-0.0510023787275068
2.43999549167173,-0.0508405955620177
2.44999547319498,-0.0506761235422474
2.45999545471822,-0.0505078937984476
2.46999543624147,-0.0503366752904487
2.47999541776471,-0.0501629871620151
2.48999539928796,-0.0499868307706677
2.4999953808112,-0.0498086732481804
2.50999536233445,-0.0496275341193595
2.51999534385769,-0.0494448926100257
2.52999532538094,-0.0492609440430795
2.53999530690418,-0.0490756912201714
2.54999528842742,-0.0488898237741336
2.55999526995067,-0.048703204648888
2.56999525147391,-0.0485157052608403
2.57999523299716,-0.0483276774194212
2.5899952145204,-0.0481391229838433
2.59999519604365,-0.0479502501804768
2.60999517756689,-0.0477610446807904
2.61999515909014,-0.0475714689903763
2.62999514061338,-0.0473815746590294
2.63999512213663,-0.0471913628377465
2.64999510365987,-0.0470008800637111
2.65999508518312,-0.0468101012047038
2.66999506670636,-0.0466190182805178
2.67999504822961,-0.0464276327651707
2.68999502975285,-0.0462359455819137
2.6999950112761,-0.0460438638411
2.70999499279934,-0.0458515566557013
2.71999497432259,-0.0456590264905827
2.72999495584583,-0.0454662590403418
2.73999493736908,-0.045273255490563
2.74999491889232,-0.0450799789731981
2.75999490041557,-0.0448864006355855
2.76999488193881,-0.0446930159409246
2.77999486346206,-0.0444998329811548
2.7899948449853,-0.0443068538776365
2.79999482650854,-0.0441145446388982
2.80999480803179,-0.0439224509838855
2.81999478955503,-0.0437311835224006
2.82999477107828,-0.0435412858965942
2.83999475260152,-0.0433527611142265
2.84999473412477,-0.0431658972989464
2.85999471564801,-0.0429821110049029
2.86999469717126,-0.0428006366314855
2.8799946786945,-0.0426220007129411
2.88999466021775,-0.0424462033904626
2.89999464174099,-0.0422730468668155
2.90999462326424,-0.0421028164420139
2.91999460478748,-0.041935424394166
2.92999458631073,-0.0417704782810172
2.93999456783397,-0.0416079742607132
2.94999454935722,-0.0414477613420671
2.95999453088046,-0.0412886182451085
2.96999451240371,-0.041130711125382
2.97999449392695,-0.0409736379066137
2.9899944754502,-0.0408173933000453
2.99999445697344,-0.0406619720157754
3.00999443849669,-0.0405064424886734
3.01999442001993,-0.0403498874421179
3.02999440154318,-0.0401923015945348
3.03999438306642,-0.0400336796652522
3.04999436458966,-0.0398736066336529
3.05999434611291,-0.039712257091798
3.06999432763615,-0.0395483554846477
3.0799943091594,-0.0393817457159282
3.08999429068264,-0.0392124240440048
3.09999427220589,-0.0390399707908573
3.10999425372913,-0.0388642597554465
3.11999423525238,-0.0386855390737026
3.12999421677562,-0.0385035976750577
3.13999419829887,-0.038318435864567
3.14999417982211,-0.0381305608597888
3.15999416134536,-0.0379392015350989
3.1699941428686,-0.0377457437166652
3.17999412439185,-0.0375504655735628
3.18999410591509,-0.037353370281928
3.19999408743834,-0.0371549685462228
3.20999406896158,-0.0369558388224434
3.21999405048483,-0.0367555252941692
3.22999403200807,-0.036554469777224
3.23999401353132,-0.0363526744838863
3.24999399505456,-0.0361501478942092
3.25999397657781,-0.0359474432609376
3.26999395810105,-0.0357444872936632
3.27999393962429,-0.035541212201757
3.28999392114754,-0.0353376192053554
3.29999390267078,-0.035133697707087
3.30999388419403,-0.0349295111433227
3.31999386571728,-0.0347251964434816
3.32999384724052,-0.0345206518425629
3.33999382876376,-0.0343158782847502
3.34999381028701,-0.0341108775721141
3.35999379181025,-0.03390567611817
3.3699937733335,-0.0337002261381187
3.37999375485674,-0.0334945983666925
3.38999373637999,-0.0332887940030523
3.39999371790323,-0.0330828786536305
3.40999369942648,-0.0328768515980854
3.41999368094972,-0.0326706614034149
3.42999366247297,-0.0324645637783568
3.43999364399621,-0.032258560712128
3.44999362551946,-0.0320530894470529
3.4599936070427,-0.0318481056198551
3.46999358856595,-0.0316433575887787
3.47999357008919,-0.0314396575337843
3.48999355161244,-0.0312370085075414
3.49999353313568,-0.0310356651456556
3.50999351465893,-0.0308374754309335
3.51999349618217,-0.0306412091822676
3.52999347770541,-0.0304473458594741
3.53999345922866,-0.030255886821624
3.5499934407519,-0.0300675711589494
3.55999342227515,-0.0298835031590136
3.5699934037984,-0.0297022935744065
3.57999338532164,-0.0295239963977315
3.58999336684488,-0.0293486094916192
3.59999334836813,-0.0291752024296921
3.60999332989137,-0.0290051956123698
3.61999331141462,-0.02883789210294
3.62999329293786,-0.0286721257388948
3.63999327446111,-0.0285078919163263
3.64999325598435,-0.0283448155897657
3.6599932375076,-0.0281820629663831
3.66999321903084,-0.0280193566290343
3.67999320055409,-0.0278556985411907
3.68999318207733,-0.0276910844581067
3.69999316360058,-0.0275242230683775
3.70999314512382,-0.0273559508307025
3.71999312664707,-0.0271849005461548
3.72999310817031,-0.0270108395231809
3.73999308969356,-0.0268337630725305
3.7499930712168,-0.0266526373426678
3.75999305274005,-0.0264679191357444
3.76999303426329,-0.026279852488733
3.77999301578654,-0.0260879073850279
3.78999299730978,-0.0258920822052584
3.79999297883303,-0.025692977362462
3.80999296035627,-0.0254888171825772
3.81999294187952,-0.0252811826810131
3.82999292340276,-0.0250709397580704
3.839992904926,-0.0248580913508445
3.84999288644925,-0.0246427958675462
3.85999286797249,-0.0244259339537999
3.86999284949574,-0.0242076152117181
3.87999283101898,-0.0239881825898368
3.88999281254223,-0.0237676385189519
3.89999279406547,-0.0235462625673703
3.90999277558872,-0.0233242141948243
3.91999275711196,-0.0231016933401532
3.92999273863521,-0.0228787587819386
3.93999272015845,-0.0226554120587381
3.9499927016817,-0.0224316807752457
3.95999268320494,-0.0222077528766689
3.96999266472819,-0.0219836258998881
3.97999264625143,-0.021759311278597
3.98999262777468,-0.0215348099080197
3.99999260929792,-0.0213101226836042
4.00999259082117,-0.021085328636835
4.01999257234441,-0.0208604518420312
4.02999255386765,-0.0206354932463961
4.0399925353909,-0.0204104537973714
4.04999251691415,-0.0201853462464373
4.05999249843739,-0.019960213487899
4.06999247996063,-0.0197351950742938
4.07999246148388,-0.0195103169511359
4.08999244300712,-0.0192855808396243
4.09999242453037,-0.019061048173753
4.10999240605361,-0.018836877553077
4.11999238757686,-0.0186132701861286
4.1299923691001,-0.0183905315579461
4.13999235062335,-0.0181686644911562
4.14999233214659,-0.017948033402485
4.15999231366984,-0.0177286845793182
4.16999229519308,-0.0175116184707065
4.17999227671633,-0.0172970078690177
4.18999225823957,-0.0170848563372874
4.19999223976282,-0.0168768404836194
4.20999222128606,-0.0166716617418204
4.21999220280931,-0.0164696048198858
4.22999218433255,-0.016270968343457
4.2399921658558,-0.0160757520123562
4.24999214737904,-0.0158849193035259
4.25999212890229,-0.015696238723853
4.26999211042553,-0.0155109552352569
4.27999209194878,-0.0153278900791927
4.28999207347202,-0.0151470389619038
4.29999205499526,-0.0149677505371809
4.30999203651851,-0.0147905009181055
4.31999201804175,-0.0146136487543394
4.329991999565,-0.0144371015736238
4.33999198108824,-0.0142608536103735
4.34999196261149,-0.0140834498823909
4.35999194413473,-0.0139063040613752
4.36999192565798,-0.01372803403351
4.37999190718122,-0.0135480826644999
4.38999188870447,-0.0133664446330793
4.39999187022771,-0.0131818835799816
4.40999185175096,-0.0129935834153232
4.4199918332742,-0.0128031293943072
4.42999181479745,-0.0126095293618644
4.43999179632069,-0.0124127809673138
4.44999177784394,-0.0122129726726384
4.45999175936718,-0.0120086871572176
4.46999174089043,-0.0118009905375617
4.47999172241367,-0.0115906689201683
4.48999170393692,-0.0113777240924215
4.49999168546016,-0.0111625382674964
4.50999166698341,-0.0109441445007556
4.51999164850665,-0.0107242438238154
4.5299916300299,-0.0105030083285268
4.53999161155314,-0.0102804422056433
4.54999159307639,-0.0100569632818663
4.55999157459963,-0.00983267962763575
4.56999155612287,-0.00960668146373467
4.57999153764612,-0.00937910899217364
4.58999151916936,-0.00914996533276822
4.59999150069261,-0.00891952142072281
4.60999148221585,-0.00868705706518303
4.6199914637391,-0.00845329138413527
4.62999144526234,-0.00821838995473361
4.63999142678559,-0.00798235364009938
4.64999140830883,-0.00774569529343436
4.65999138983208,-0.00750807316514516
4.66999137135532,-0.0072700425709047
4.67999135287857,-0.00703160936002096
4.68999133440181,-0.00679277377842751
4.69999131592506,-0.00655360850156172
4.7099912974483,-0.00631412783129234
4.71999127897155,-0.00607468926045322
4.72999126049479,-0.00583530876455687
4.73999124201804,-0.00559598713212688
4.74999122354128,-0.00535670175860506
4.75999120506453,-0.00511730617433783
4.76999118658777,-0.00487858073470428
4.77999116811102,-0.00464055908178867
4.78999114963426,-0.00440324345415861
4.79999113115751,-0.00416719144684101
4.80999111268075,-0.00393179878864345
4.819991094204,-0.00369782236359965
4.82999107572724,-0.00346591810876046
4.83999105725048,-0.00323608955478048
4.84999103877373,-0.00300869047193304
4.85999102029697,-0.00278563283983127
4.86999100182022,-0.00256571172743823
4.87999098334346,-0.0023495075092272
4.88999096486671,-0.00213702041575656
4.89999094638995,-0.00192802064108619
4.9099909279132,-0.00172322103515627
4.91999090943644,-0.00152208755615259
4.92999089095969,-0.00132409506671152
4.93999087248293,-0.00112923913326135
4.94999085400618,-0.000937340806863346
4.95999083552942,-0.00074716971316002
4.96999081705267,-0.00055863115260207
4.97999079857591,-0.000371212358930929
4.98999078009916,-0.000184907188352411
4.9999907616224,2.90504146958916E-07
5.00999074314565,0.000185495050160829
5.01999072466889,0.000371820548290834
5.02999070619214,0.000559273142850019
5.03999068771538,0.000747858976906279
5.04999066923863,0.000938092408555441
5.05999065076187,0.00113006734685796
5.06999063228512,0.0013250106721773
5.07999061380836,0.00152310175085896
5.0899905953316,0.00172434499360783
5.09999057685485,0.00192925974693644
5.10999055837809,0.00213838017907311
5.11999053990134,0.00235098426098281
5.12999052142458,0.00256729889141324
5.13999050294783,0.00278732380478759
5.14999048447107,0.00301047353607591
5.15999046599432,0.00323794616152753
5.16999044751756,0.0034678405801131
5.17999042904081,0.00369980046545512
5.18999041056405,0.00393382228987175
5.1999903920873,0.00416925302761423
5.20999037361054,0.00440533318709552
5.21999035513379,0.00464266884243459
5.22999033665703,0.00488070609741773
5.23999031818028,0.00511944272168245
5.24999029970352,0.00535884546395772
5.25999028122677,0.0055981396103091
5.26999026275001,0.00583746759202573
5.27999024427326,0.00607685101943616
5.2899902257965,0.00631628910741079
5.29999020731975,0.00655576625821839
5.30999018884299,0.00679493346395132
5.31999017036624,0.00703377159092495
5.32999015188948,0.00727220479905001
5.33999013341273,0.00751023284312695
5.34999011493597,0.00774784986099582
5.35999009645921,0.007984501887122
