"Distance*$Poles/(3.14159265358979*($DiaGap-$AirGap)*2*50)*1s [ms]",Flux_Lines [] - Time='0.02s'
0,-0.0889954566954992
0.00999999530992758,-0.088995661140152
0.0199999906198552,-0.0889950347442035
0.0299999859297828,-0.0889935774188113
0.0399999812397103,-0.088991289076437
0.0499999765496379,-0.0889882140038619
0.0599999718595655,-0.0889858043878775
0.0699999671694931,-0.0889827997676959
0.0799999624794207,-0.0889791610277974
0.0899999577893483,-0.0889748884125317
0.0999999530992759,-0.0889699860518963
0.109999948409203,-0.0889639056011853
0.119999943719131,-0.0889576385324855
0.129999939029059,-0.0889512865096964
0.139999934338986,-0.0889448498055095
0.149999929648914,-0.0889381971625257
0.159999924958841,-0.0889301332006083
0.169999920268769,-0.0889217152329607
0.179999915578697,-0.0889130017026773
0.189999910888624,-0.0889039928210533
0.199999906198552,-0.088894839894644
0.209999901508479,-0.0888859620817001
0.219999896818407,-0.0888766137422221
0.229999892128334,-0.0888667832173644
0.239999887438262,-0.0888564707424094
0.24999988274819,-0.0888459829844918
0.259999878058117,-0.0888356545381649
0.269999873368045,-0.0888249830688928
0.279999868677972,-0.0888137153808033
0.2899998639879,-0.0888018511857332
0.299999859297828,-0.0887896140501391
0.309999854607755,-0.0887775373349848
0.319999849917683,-0.088765090221546
0.32999984522761,-0.0887521886315423
0.339999840537538,-0.0887388322609431
0.349999835847465,-0.0887248413741924
0.359999831157393,-0.0887096913481946
0.369999826467321,-0.0886940943024043
0.379999821777248,-0.0886781471720689
0.389999817087176,-0.0886618493899575
0.399999812397103,-0.0886447844139142
0.409999807707031,-0.0886264911431594
0.419999803016959,-0.0886073850048816
0.429999798326886,-0.0885873482103706
0.439999793636814,-0.088566380408933
0.449999788946741,-0.0885445384052239
0.459999784256669,-0.0885220290376046
0.469999779566596,-0.0884985048287762
0.479999774876524,-0.0884738566167719
0.489999770186452,-0.0884480847180627
0.499999765496379,-0.0884214376561535
0.509999760806307,-0.0883941713983954
0.519999756116234,-0.0883659337341196
0.529999751426162,-0.0883366013422835
0.53999974673609,-0.0883061747012268
0.549999742046017,-0.0882749678841146
0.559999737355945,-0.0882436257159701
0.569999732665872,-0.0882115135812448
0.5799997279758,-0.0881785620361695
0.589999723285728,-0.0881447716241686
0.599999718595655,-0.0881100588290045
0.609999713905583,-0.088073960740734
0.61999970921551,-0.0880371234073128
0.629999704525438,-0.0879999448419296
0.639999699835365,-0.0879624255592102
0.649999695145293,-0.0879243188142489
0.659999690455221,-0.0878843294968742
0.669999685765148,-0.0878433728778402
0.679999681075076,-0.0878015325457211
0.689999676385003,-0.0877588088028705
0.699999671694931,-0.0877152744824063
0.709999667004859,-0.0876714767039999
0.719999662314786,-0.0876266033351202
0.729999657624714,-0.0875804019745442
0.739999652934641,-0.0875328734823728
0.749999648244569,-0.0874842989567768
0.759999643554496,-0.0874357694498864
0.769999638864424,-0.0873859278690431
0.779999634174352,-0.0873345528264792
0.789999629484279,-0.0872816455243519
0.799999624794207,-0.0872278303172934
0.809999620104134,-0.0871747645795433
0.819999615414062,-0.08712116749216
0.829999610723989,-0.0870669540932658
0.839999606033917,-0.0870121264249091
0.849999601343845,-0.08695674380271
0.859999596653772,-0.0868993755802379
0.8699995919637,-0.0868425689334848
0.879999587273627,-0.0867870644595876
0.889999582583555,-0.0867328629458791
0.899999577893483,-0.0866796432469455
0.90999957320341,-0.0866240041202582
0.919999568513338,-0.0865680506982918
0.929999563823265,-0.0865117062243063
0.939999559133193,-0.0864549691853622
0.949999554443121,-0.0863979030844948
0.959999549753048,-0.0863435442662939
0.969999545062976,-0.0862876403105871
0.979999540372903,-0.0862299043947713
0.989999535682831,-0.0861703349497051
0.999999530992759,-0.086108930408805
1.00999952630269,-0.0860481255957056
1.01999952161261,-0.0859851980538788
1.02999951692254,-0.0859201457249786
1.03999951223247,-0.085852966554328
1.0499995075424,-0.0857836448008656
1.05999950285232,-0.0857129238081819
1.06999949816225,-0.0856395617427569
1.07999949347218,-0.0855634484050802
1.08999948878211,-0.0854845825004016
1.09999948409203,-0.0854026717052806
1.10999947940196,-0.0853159217098941
1.11999947471189,-0.0852263232400743
1.12999947002182,-0.0851339149083866
1.13999946533174,-0.0850386970800749
1.14999946064167,-0.0849404878268697
1.1599994559516,-0.0848366747058049
1.16999945126153,-0.0847298346054075
1.17999944657146,-0.0846201969219264
1.18999944188138,-0.084507763545641
1.19999943719131,-0.0843926764463782
1.20999943250124,-0.0842757129271977
1.21999942781117,-0.0841557986511427
1.22999942312109,-0.0840327577862407
1.23999941843102,-0.0839065917914673
1.24999941374095,-0.0837775043153937
1.25999940905088,-0.0836471764679159
1.2699994043608,-0.0835141898348608
1.27999939967073,-0.0833773430750854
1.28999939498066,-0.0832366364629996
1.29999939029059,-0.0830928441064613
1.30999938560051,-0.0829489921881118
1.31999938091044,-0.0828025125265966
1.32999937622037,-0.0826530567350795
1.3399993715303,-0.0825006258118192
1.34999936684022,-0.0823451259121237
1.35999936215015,-0.0821842460996308
1.36999935746008,-0.0820216114536823
1.37999935277001,-0.0818579469623772
1.38999934807993,-0.0816932525369332
1.39999934338986,-0.0815263763068821
1.40999933869979,-0.0813546980172818
1.41999933400972,-0.0811805119858957
1.42999932931964,-0.0810045391832381
1.43999932462957,-0.0808267800066101
1.4499993199395,-0.080648024195413
1.45999931524943,-0.0804698952188087
1.46999931055935,-0.0802904430245296
1.47999930586928,-0.0801098125890233
1.48999930117921,-0.0799280060884049
1.49999929648914,-0.0797459216698444
1.50999929179907,-0.0795677538828509
1.51999928710899,-0.079390697091736
1.52999928241892,-0.0792143008200133
1.53999927772885,-0.0790385653364707
1.54999927303878,-0.0788651472718193
1.5599992683487,-0.078696828011163
1.56999926365863,-0.0785312464229203
1.57999925896856,-0.0783683157712841
1.58999925427849,-0.0782080334049347
1.59999924958841,-0.0780488697593547
1.60999924489834,-0.077890179359737
1.61999924020827,-0.0777332865824218
1.6299992355182,-0.0775782891947318
1.63999923082812,-0.0774251815060073
1.64999922613805,-0.0772732704347
1.65999922144798,-0.0771209546431732
1.66999921675791,-0.076968751253332
1.67999921206783,-0.0768152803852537
1.68999920737776,-0.076660535975993
1.69999920268769,-0.0765046120428458
1.70999919799762,-0.0763478760937534
1.71999919330754,-0.0761895640489162
1.72999918861747,-0.0760287024791951
1.7399991839274,-0.0758652868997704
1.74999917923733,-0.0756983329558862
1.75999917454725,-0.0755285228135106
1.76999916985718,-0.0753542353258132
1.77999916516711,-0.0751768434882437
1.78999916047704,-0.0749963470983575
1.79999915578697,-0.0748129224864725
1.80999915109689,-0.0746252813094433
1.81999914640682,-0.0744327778865242
1.82999914171675,-0.0742370637941825
1.83999913702668,-0.0740381423106734
1.8499991323366,-0.0738364299931347
1.85999912764653,-0.0736361706224745
1.86999912295646,-0.0734339758985375
1.87999911826639,-0.0732298983702917
1.88999911357631,-0.0730239413123907
1.89999910888624,-0.0728163954980708
1.90999910419617,-0.072609198646071
1.9199990995061,-0.0724016224463499
1.92999909481602,-0.0721937736111435
1.93999909012595,-0.0719856540300796
1.94999908543588,-0.0717772233549832
1.95999908074581,-0.0715673444327922
1.96999907605573,-0.0713572239377932
1.97999907136566,-0.071146898136413
1.98999906667559,-0.0709363680484356
1.99999906198552,-0.0707256346939762
2.00999905729544,-0.0705141742284243
2.01999905260537,-0.07030227153102
2.0299990479153,-0.0700899277419073
2.03999904322523,-0.0698771440020881
2.04999903853516,-0.0696639256465381
2.05999903384508,-0.0694502177291901
2.06999902915501,-0.069236152607704
2.07999902446494,-0.0690217454012607
2.08999901977487,-0.0688069980076891
2.09999901508479,-0.0685920220886326
2.10999901039472,-0.0683767632529155
2.11999900570465,-0.068161775434375
2.12999900101458,-0.0679472244501931
2.1399989963245,-0.0677331135916233
2.14999899163443,-0.0675199131791915
2.15999898694436,-0.0673074709720799
2.16999898225429,-0.0670971658766367
2.17999897756421,-0.0668892788742999
2.18999897287414,-0.0666838140499707
2.19999896818407,-0.0664823754536162
2.209998963494,-0.0662845227662536
2.21999895880392,-0.0660895420526798
2.22999895411385,-0.0658979598448515
2.23999894942378,-0.0657097754794255
2.24999894473371,-0.0655254190550304
2.25999894004363,-0.0653449471472248
2.26999893535356,-0.0651665078093097
2.27999893066349,-0.0649901325160022
2.28999892597342,-0.0648158166152043
2.29999892128334,-0.0646432085413919
2.30999891659327,-0.0644716477565999
2.3199989119032,-0.0643010286008082
2.32999890721313,-0.0641305166586959
2.33999890252305,-0.0639601059559034
2.34999889783298,-0.063789401188243
2.35999889314291,-0.0636173138358059
2.36999888845284,-0.0634441203919885
2.37999888376277,-0.0632690994037771
2.38999887907269,-0.0630922454785006
2.39999887438262,-0.0629129421602742
2.40999886969255,-0.062729713538441
2.41999886500248,-0.062543464329969
2.4299988603124,-0.0623535104502908
2.43999885562233,-0.0621598491108917
2.44999885093226,-0.061962519597089
2.45999884624219,-0.0617599387697844
2.46999884155211,-0.0615531859675503
2.47999883686204,-0.0613430012075247
2.48999883217197,-0.0611293864576852
2.4999988274819,-0.0609129685580535
2.50999882279182,-0.0606924410787196
2.51999881810175,-0.0604699019251276
2.52999881341168,-0.0602456453603392
2.53999880872161,-0.0600196753176062
2.54999880403153,-0.0597928529649786
2.55999879934146,-0.0595652992305246
2.56999879465139,-0.0593366399678876
2.57999878996132,-0.059107312121905
2.58999878527124,-0.0588773181258766
2.59999878058117,-0.0586467607404113
2.6099987758911,-0.0584161256420795
2.61999877120103,-0.058185067563841
2.62999876651095,-0.0579535910685407
2.63999876182088,-0.0577216975177114
2.64999875713081,-0.0574893606767471
2.65999875244074,-0.0572566302004121
2.66999874775067,-0.057023562523826
2.67999874306059,-0.0567900864761871
2.68999873837052,-0.0565562032420788
2.69999873368045,-0.0563219123499225
2.70999872899038,-0.056087103176461
2.7199987243003,-0.0558519188080047
2.72999871961023,-0.0556163954627129
2.73999871492016,-0.0553805347389119
2.74999871023009,-0.0551442393522276
2.75999870554001,-0.0549074541775261
2.76999870084994,-0.054670807912077
2.77999869615987,-0.0544343286473449
2.7899986914698,-0.0541980193277007
2.79999868677972,-0.0539624439632264
2.80999868208965,-0.0537269664569813
2.81999867739958,-0.0534926319493727
2.82999867270951,-0.0532600877427575
2.83999866801943,-0.0530293382769491
2.84999866332936,-0.0528008296617899
2.85999865863929,-0.0525767248455305
2.86999865394922,-0.0523558258960875
2.87999864925914,-0.0521387819918486
2.88999864456907,-0.0519255933622378
2.899998639879,-0.0517160956527876
2.90999863518893,-0.051510901127584
2.91999863049885,-0.051309189668941
2.92999862580878,-0.0511105338079087
2.93999862111871,-0.0509149285445263
2.94999861642864,-0.0507221959150737
2.95999861173856,-0.0505316735691294
2.96999860704849,-0.050342284043406
2.97999860235842,-0.0501538289450111
2.98999859766835,-0.0499663013987247
2.99999859297828,-0.0497796945271297
3.0099985882882,-0.0495928988147464
3.01999858359813,-0.0494048631308453
3.02999857890806,-0.0492155806351613
3.03999857421799,-0.049025044489763
3.04999856952791,-0.0488330432918077
3.05999856483784,-0.0486383953777926
3.06999856014777,-0.0484404250538563
3.0799985554577,-0.0482389458470744
3.08999855076762,-0.0480339528713136
3.09999854607755,-0.0478249850862588
3.10999854138748,-0.0476111525872105
3.11999853669741,-0.0473930100205286
3.12999853200733,-0.0471703775411793
3.13999852731726,-0.0469432555392392
3.14999852262719,-0.0467122774729187
3.15999851793712,-0.0464762623903161
3.16999851324704,-0.0462373009021828
3.17999850855697,-0.0459958241995872
3.1899985038669,-0.0457518368710397
3.19999849917683,-0.0455059831882956
3.20999849448675,-0.0452593423717463
3.21999848979668,-0.0450112443908293
3.22999848510661,-0.0447622398055848
3.23999848041654,-0.044512331630667
3.24999847572647,-0.0442615460313126
3.25999847103639,-0.0440105165503431
3.26999846634632,-0.0437591982805673
3.27999846165625,-0.0435074849228646
3.28999845696617,-0.0432553780956926
3.2999984522761,-0.0430029206302441
3.30999844758603,-0.0427502557252401
3.31999844289596,-0.0424972805511141
3.32999843820589,-0.042243998293324
3.33999843351581,-0.0419904101456935
3.34999842882574,-0.041736458393513
3.35999842413567,-0.0414821805905595
3.3699984194456,-0.0412276849191195
3.37999841475552,-0.0409729573418896
3.38999841006545,-0.0407179992757825
3.39999840537538,-0.040462832954008
3.40999840068531,-0.04020700410744
3.41999839599523,-0.0399511308835091
3.42999839130516,-0.0396953875587319
3.43999838661509,-0.0394397767982741
3.44999838192502,-0.0391848194996319
3.45999837723494,-0.0389300795739462
3.46999837254487,-0.0386756927474888
3.4799983678548,-0.0384226913228763
3.48999836316473,-0.0381710797089116
3.49999835847465,-0.0379212344017971
3.50999835378458,-0.0376757334842029
3.51999834909451,-0.0374329558334401
3.52999834440444,-0.0371935297834856
3.53999833971437,-0.0369574574051159
3.54999833502429,-0.0367257391285723
3.55999833033422,-0.0364999974756638
3.56999832564415,-0.0362780505220288
3.57999832095408,-0.0360598930747312
3.589998316264,-0.0358455218278248
3.59999831157393,-0.0356343527715878
3.60999830688386,-0.0354275750478348
3.61999830219379,-0.0352234683484973
3.62999829750371,-0.0350213654514902
3.63999829281364,-0.0348212601355357
3.64999828812357,-0.0346223313967908
3.6599982834335,-0.0344250163884549
3.66999827874342,-0.0342279991540643
3.67999827405335,-0.0340307626676417
3.68999826936328,-0.033833300686459
3.69999826467321,-0.0336342890477383
3.70999825998313,-0.0334335176570925
3.71999825529306,-0.0332300781168151
3.72999825060299,-0.0330231904070839
3.73999824591292,-0.0328128500882207
3.74999824122284,-0.032598971796028
3.75999823653277,-0.0323784683162051
3.7699982318427,-0.0321520514708403
3.77999822715263,-0.031920074688061
3.78999822246255,-0.0316825371243699
3.79999821777248,-0.0314400849697512
3.80999821308241,-0.0311919801398332
3.81999820839234,-0.03093781216698
3.82999820370227,-0.0306795734742225
3.83999819901219,-0.0304172685881775
3.84999819432212,-0.0301512471676004
3.85999818963205,-0.0298831311613343
3.86999818494198,-0.0296128629569806
3.8799981802519,-0.0293410525749304
3.88999817556183,-0.0290677036032901
3.89999817087176,-0.0287930272022845
3.90999816618169,-0.0285176404690322
3.91999816149161,-0.0282415963031495
3.92999815680154,-0.0279650457083905
3.93999815211147,-0.0276879906359352
3.9499981474214,-0.0274104602756437
3.95999814273132,-0.0271326364659112
3.96999813804125,-0.0268545071976835
3.97999813335118,-0.0265760853196271
3.98999812866111,-0.0262973719181939
3.99999812397103,-0.0260183680802106
4.00999811928096,-0.0257391085978172
4.01999811459089,-0.0254597083038349
4.02999810990082,-0.0251801683338066
4.03999810521074,-0.0249004898236745
4.04999810052067,-0.024620688103155
4.0599980958306,-0.0243407155284343
4.06999809114053,-0.0240608440994541
4.07999808645045,-0.0237811128169042
4.08999808176038,-0.0235015238823152
4.09999807707031,-0.0232222233253865
4.10999807238024,-0.0229431131974169
4.11999806769016,-0.0226649285795884
4.12999806300009,-0.0223878889397597
4.13999805831002,-0.0221119983308281
4.14999805361995,-0.0218378329731233
4.15999804892988,-0.0215653043522579
4.1699980442398,-0.0212958572359361
4.17999803954973,-0.0210298183188519
4.18999803485966,-0.0207671925794532
4.19999803016959,-0.0205091799377527
4.20999802547951,-0.0202583988818303
4.21999802078944,-0.0200117098122494
4.22999801609937,-0.0197697202284557
4.2399980114093,-0.0195324280799535
4.24999800671922,-0.0192990621967258
4.25999800202915,-0.0190701601350191
4.26999799733908,-0.0188458127070075
4.27999799264901,-0.0186244599527152
4.28999798795893,-0.0184060952007544
4.29999798326886,-0.0181903148596215
4.30999797857879,-0.0179750814587544
4.31999797388872,-0.0177617799890666
4.32999796919864,-0.0175488974356392
4.33999796450857,-0.017336426661836
4.3499979598185,-0.0171233689833736
4.35999795512843,-0.0169097646940575
4.36999795043836,-0.0166943635228051
4.37999794574828,-0.0164767109262661
4.38999794105821,-0.0162567996535218
4.39999793636814,-0.0160330643631929
4.40999793167806,-0.0158044323763831
4.41999792698799,-0.015572655820101
4.42999792229792,-0.0153363947574271
4.43999791760785,-0.0150956455452183
4.44999791291777,-0.0148504531090553
4.4599979082277,-0.0145987160821047
4.46999790353763,-0.0143420359864224
4.47999789884756,-0.0140815893462304
4.48999789415749,-0.0138173782193718
4.49999788946741,-0.0135502094618293
4.50999788477734,-0.0132782935140325
4.51999788008727,-0.0130047606818044
4.5299978753972,-0.0127300481850613
4.53999787070712,-0.0124541612721792
4.54999786601705,-0.0121777897245731
4.55999786132698,-0.0119015167027913
4.56999785663691,-0.0116240193852931
4.57999785194683,-0.011345445697696
4.58999784725676,-0.0110658000185606
4.59999784256669,-0.0107846336345852
4.60999783787662,-0.0105020234526664
4.61999783318654,-0.0102179488456937
4.62999782849647,-0.00993239053889465
4.6399978238064,-0.00964534982780771
4.64999781911633,-0.00935696008270817
4.65999781442626,-0.0090679101413496
4.66999780973618,-0.00877809208266518
4.67999780504611,-0.0084876943680489
4.68999780035604,-0.00819671752272213
4.69999779566596,-0.00790525047008809
4.70999779097589,-0.00761344618949306
4.71999778628582,-0.00732151280490169
4.72999778159575,-0.00702967679154868
4.73999777690568,-0.00673793923637601
4.7499977722156,-0.0064461719870473
4.75999776752553,-0.00615422196882629
4.76999776283546,-0.00586309337758584
4.77999775814539,-0.00557284019268474
4.78999775345531,-0.0052834654638376
4.79999774876524,-0.0049956520609338
4.80999774407517,-0.00470858454116453
4.8199977393851,-0.00442355792529305
4.82999773469502,-0.00414136171946821
4.83999773000495,-0.00386200102017731
4.84999772531488,-0.00358601784451623
4.85999772062481,-0.0033161790508266
4.86999771593473,-0.00305080471873609
4.87999771124466,-0.00279062155024197
4.88999770655459,-0.00253562987144868
4.89999770186452,-0.00228564760480991
4.90999769717444,-0.00204176075067863
4.91999769248437,-0.00180251158872659
4.9299976877943,-0.0015673287793561
4.93999768310423,-0.00133620672492255
4.94999767841415,-0.00110893450141919
4.95999767372408,-0.000884972127991618
4.96999766903401,-0.000662620982849604
4.97999766434394,-0.000441613291970632
4.98999765965386,-0.000221941368580867
4.99999765496379,-3.59752311849982E-06
5.00999765027372,0.000214754131091282
5.01999764558365,0.00043445005459837
5.02999764089357,0.000655497934334166
5.0399976362035,0.000877905454409825
5.04999763151343,0.00110194061803233
5.05999762682336,0.0013293082876301
5.06999762213329,0.00156053932629104
5.07999761744321,0.00179584425313318
5.08999761275314,0.00203522863860978
5.09999760806307,0.00227925866229585
5.109997603373,0.00252939850421385
5.11999759868292,0.00278454354871052
5.12999759399285,0.00304487261619088
5.13999758930278,0.00331038533356231
5.1499975846127,0.00358034811189508
5.15999757992263,0.00385642183163175
5.16999757523256,0.00413586275788532
5.17999757054249,0.00441812607340924
5.18999756585242,0.00470320668655957
5.19999756116234,0.00499031873290177
5.20999755647227,0.00527816660452526
5.2199975517822,0.00556756578557983
5.22999754709213,0.00585783756414801
5.23999754240206,0.00614897890340527
5.24999753771198,0.00644093625154988
5.25999753302191,0.00673271022103925
5.26999752833184,0.00702445236838174
5.27999752364176,0.00731629120648015
5.28999751895169,0.00760822565610606
5.29999751426162,0.00790002946672526
5.30999750957155,0.00819149655728858
5.31999750488148,0.00848247135852175
5.3299975001914,0.00877286457462105
5.33999749550133,0.00906267568635363
5.34999749081126,0.00935171669684605
5.35999748612118,0.00964009992931661
