"Distance*$Poles/(3.14159265358979*($DiaGap-$AirGap)*2*50)*1s [ms]",Flux_Lines [] - Time='0.02s'
0,-0.0773875862359771
0.00999998198254618,-0.07738775621594
0.0199999639650924,-0.077387236911467
0.0299999459476385,-0.0773860282337838
0.0399999279301847,-0.0773841300952142
0.0499999099127309,-0.0773815830625749
0.0599998918952771,-0.0773796000145343
0.0699998738778233,-0.0773771237119511
0.0799998558603695,-0.0773741099363305
0.0899998378429156,-0.0773705588739362
0.0999998198254618,-0.077366480394418
0.109999801808008,-0.0773614495196328
0.119999783790554,-0.0773562712261281
0.1299997657731,-0.0773510033630334
0.139999747755647,-0.0773456460819012
0.149999729738193,-0.0773400672971036
0.159999711720739,-0.0773333517313304
0.169999693703285,-0.0773263147038211
0.179999675685831,-0.0773190074481073
0.189999657668377,-0.0773114301316259
0.199999639650924,-0.0773036887173464
0.20999962163347,-0.0772961520867882
0.219999603616016,-0.07728823118949
0.229999585598562,-0.077279910146808
0.239999567581108,-0.077271189169506
0.249999549563654,-0.0772622850274908
0.259999531546201,-0.077253544975629
0.269999513528747,-0.0772443744494678
0.279999495511293,-0.0772347724020878
0.289999477493839,-0.0772247387221376
0.299999459476385,-0.077214430285798
0.309999441458932,-0.077204172024504
0.319999423441478,-0.0771935895603901
0.329999405424024,-0.0771826386025619
0.33999938740657,-0.0771713188907005
0.349999369389116,-0.0771594634465518
0.359999351371663,-0.0771466224005298
0.369999333354209,-0.0771334084829651
0.379999315336755,-0.0771198967243548
0.389999297319301,-0.0771060866730791
0.399999279301847,-0.0770916314395069
0.409999261284393,-0.077076118503466
0.41999924326694,-0.0770599254653111
0.429999225249486,-0.0770429808331269
0.439999207232032,-0.0770252843871493
0.449999189214578,-0.0770069115962263
0.459999171197124,-0.076987925311868
0.46999915317967,-0.0769680989558561
0.479999135162217,-0.076947378559134
0.489999117144763,-0.076925764408518
0.499999099127309,-0.0769033589339969
0.509999081109855,-0.0768805686801662
0.519999063092402,-0.076857086610265
0.529999045074948,-0.0768326833333504
0.539999027057494,-0.0768073590820861
0.54999900904004,-0.0767813283801908
0.559998991022586,-0.0767552451103095
0.569998973005132,-0.0767285370710029
0.579998954987679,-0.0767011103436312
0.589998936970225,-0.0766729653750982
0.599998918952771,-0.0766440476760275
0.609998900935317,-0.0766140389298164
0.619998882917863,-0.0765834128107381
0.629998864900409,-0.0765524584267047
0.639998846882956,-0.0765211761927219
0.649998828865502,-0.0764893760942631
0.659998810848048,-0.0764560550785724
0.669998792830594,-0.0764219506376932
0.67999877481314,-0.0763871232249044
0.689998756795687,-0.0763515730783515
0.699998738778233,-0.0763152602211244
0.709998720760779,-0.0762786590069953
0.719998702743325,-0.0762411516742974
0.729998684725871,-0.0762025993969569
0.739998666708418,-0.0761630028000387
0.749998648690964,-0.0761224539412884
0.75999863067351,-0.0760818421643654
0.769998612656056,-0.0760401115479948
0.779998594638602,-0.0759970916136099
0.789998576621148,-0.0759527832783083
0.799998558603694,-0.0759076576795605
0.809998540586241,-0.075863061460795
0.819998522568787,-0.0758179020720701
0.829998504551333,-0.0757720934915097
0.839998486533879,-0.0757256373568805
0.849998468516426,-0.0756785680288944
0.859998450498972,-0.0756298385319074
0.869998432481518,-0.075581406030317
0.879998414464064,-0.0755339147357557
0.88999839644661,-0.0754873655772329
0.899998378429156,-0.0754415246020069
0.909998360411702,-0.0753933410022295
0.919998342394249,-0.0753450364202275
0.929998324376795,-0.0752965337261828
0.939998306359341,-0.0752478317926179
0.949998288341887,-0.0751989133576677
0.959998270324433,-0.075151257023408
0.96999825230698,-0.0751025374281091
0.979998234289526,-0.0750524060791182
0.989998216272072,-0.0750008612133254
0.999998198254618,-0.0749479010699411
1.00999818023716,-0.074895177193343
1.01999816221971,-0.074840415903419
1.02999814420226,-0.0747836157601883
1.0399981261848,-0.0747247753266779
1.04999810816735,-0.074663821263916
1.0599980901499,-0.0746021690949873
1.06999807213244,-0.0745379949166125
1.07999805411499,-0.0744712191063182
1.08999803609753,-0.0744018406945816
1.09999801808008,-0.0743295297667816
1.10999800006263,-0.0742527964105194
1.11999798204517,-0.0741737615954143
1.12999796402772,-0.0740924297363856
1.13999794601026,-0.0740088013789217
1.14999792799281,-0.0739225680670649
1.15999790997536,-0.0738310101354357
1.1699978919579,-0.0737368012705708
1.17999787394045,-0.0736401007032249
1.189997855923,-0.0735409099626025
1.19999783790554,-0.0734393409973295
1.20999781988809,-0.0733362229217719
1.21999780187063,-0.0732303105718875
1.22999778385318,-0.0731213360727077
1.23999776583573,-0.0730093006510311
1.24999774781827,-0.0728943217029443
1.25999772980082,-0.0727783409841433
1.26999771178336,-0.0726594085072293
1.27999769376591,-0.0725368881156442
1.28999767574846,-0.0724107800469893
1.299997657731,-0.0722815806470277
1.30999763971355,-0.0721517939374975
1.3199976216961,-0.072019668750081
1.32999760367864,-0.0718847648205763
1.33999758566119,-0.0717470826678443
1.34999756764373,-0.0716065555605949
1.35999754962628,-0.071460692872379
1.36999753160883,-0.0713131574748434
1.37999751359137,-0.0711646882994525
1.38999749557392,-0.0710152847746056
1.39999747755647,-0.0708639839318162
1.40999745953901,-0.0707085448439115
1.41999744152156,-0.0705507850015114
1.4299974235041,-0.0703913598306064
1.43999740548665,-0.0702302691493744
1.4499973874692,-0.0700680330845799
1.45999736945174,-0.0699067863471708
1.46999735143429,-0.0697445283224911
1.47999733341684,-0.0695811346241575
1.48999731539938,-0.0694166067977495
1.49999729738193,-0.0692530444705275
1.50999727936447,-0.0690904166179009
1.51999726134702,-0.0689287213235039
1.52999724332957,-0.0687678226265702
1.53999722531211,-0.0686077220735053
1.54999720729466,-0.0684503314168281
1.5599971892772,-0.0682972671436833
1.56999717125975,-0.0681460766691129
1.5799971532423,-0.0679973047817725
1.58999713522484,-0.0678509494702857
1.59999711720739,-0.0677057694105255
1.60999709918994,-0.0675611238981048
1.61999708117248,-0.0674182667387935
1.62999706315503,-0.0672771663299856
1.63999704513757,-0.0671378177476996
1.64999702712012,-0.0669995633690015
1.65999700910267,-0.0668609615215809
1.66999699108521,-0.0667226342816724
1.67999697306776,-0.0665832898552723
1.6899969550503,-0.0664429230510282
1.69999693703285,-0.0663014263768088
1.7099969190154,-0.0661586657105717
1.71999690099794,-0.0660147941100387
1.72999688298049,-0.0658686044835766
1.73999686496304,-0.0657200930956388
1.74999684694558,-0.0655692726293423
1.75999682892813,-0.0654154224631521
1.76999681091067,-0.0652576101095472
1.77999679289322,-0.0650971120481273
1.78999677487577,-0.0649339286989576
1.79999675685831,-0.0647682712449654
1.80999673884086,-0.0645990889326268
1.8199967208234,-0.0644263412539042
1.82999670280595,-0.064251151668812
1.8399966847885,-0.0640735229137235
1.84999666677104,-0.0638938093762235
1.85999664875359,-0.0637153278146412
1.86999663073614,-0.0635354181215577
1.87999661271868,-0.0633540702454619
1.88999659470123,-0.063171286558581
1.89999657668377,-0.0629871900602731
1.90999655866632,-0.0628034390449876
1.91999654064887,-0.0626193889148448
1.92999652263141,-0.0624350987779896
1.93999650461396,-0.062250570043057
1.94999648659651,-0.0620657803450157
1.95999646857905,-0.0618798754071281
1.9699964505616,-0.0616937598869044
1.97999643254414,-0.0615074690636569
1.98999641452669,-0.0613210036742528
1.99999639650924,-0.061134364455822
2.00999637849178,-0.0609471438707579
2.01999636047433,-0.0607595758017922
2.02999634245687,-0.0605716610591644
2.03999632443942,-0.0603834004537601
2.04999630642197,-0.0601947995473103
2.05999628840451,-0.0600058127421308
2.06999627038706,-0.0598165301318433
2.07999625236961,-0.0596269862741033
2.08999623435215,-0.0594371825009021
2.0999962163347,-0.0592471688146079
2.10999619831724,-0.0590569147855319
2.11999618029979,-0.0588668994621483
2.12999616228234,-0.0586771634442539
2.13999614426488,-0.0584877091228833
2.14999612624743,-0.0582989144119143
2.15999610822998,-0.0581105276906479
2.16999609021252,-0.0579237091090809
2.17999607219507,-0.0577386846214326
2.18999605417761,-0.0575554575509459
2.19999603616016,-0.0573754178443494
2.20999601814271,-0.0571968794099297
2.21999600012525,-0.0570222048139433
2.2299959821078,-0.0568505465891974
2.23999596409034,-0.0566819034192215
2.24999594607289,-0.0565160820863743
2.25999592805544,-0.0563525955008624
2.26999591003798,-0.056192283379484
2.27999589202053,-0.0560339496806787
2.28999587400308,-0.0558775899694546
2.29999585598562,-0.0557229243959063
2.30999583796817,-0.0555688634871575
2.31999581995071,-0.0554158062293342
2.32999580193326,-0.0552629336889236
2.33999578391581,-0.0551102406810807
2.34999576589835,-0.0549573338676952
2.3599957478809,-0.0548030857926531
2.36999572986345,-0.0546478596330331
2.37999571184599,-0.0544910121659459
2.38999569382854,-0.0543325388342163
2.39999567581108,-0.0541718909237465
2.40999565779363,-0.0540077650238763
2.41999563977618,-0.0538410113731555
2.42999562175872,-0.0536711304612836
2.43999560374127,-0.0534981203684783
2.44999558572381,-0.0533225584008345
2.45999556770636,-0.0531423940585052
2.46999554968891,-0.0529582313406297
2.47999553167145,-0.052771290663777
2.489995513654,-0.0525815747503356
2.49999549563655,-0.0523893595012776
2.50999547761909,-0.052196107037184
2.51999545960164,-0.0520006734393146
2.52999544158418,-0.0518039230764901
2.53999542356673,-0.0516058586561106
2.54999540554928,-0.0514069159254281
2.55999538753182,-0.0512073568379188
2.56999536951437,-0.0510071722731073
2.57999535149691,-0.0508064849076239
2.58999533347946,-0.0506052965702653
2.59999531546201,-0.0504036791600567
2.60999529744455,-0.0502019612857155
2.6199952794271,-0.049999897097191
2.62999526140965,-0.0497974929327941
2.63999524339219,-0.0495947497924834
2.64999522537474,-0.0493916587169553
2.65999520735728,-0.0491882441033445
2.66999518933983,-0.0489845209928893
2.67999517132238,-0.0487804613315612
2.68999515330492,-0.048576065989992
2.69999513528747,-0.0483712789161351
2.70999511727002,-0.0481661571183712
2.71999509925256,-0.047960733426352
2.72999508123511,-0.0477549996168906
2.73999506321765,-0.0475489568359411
2.7499950452002,-0.0473425892456011
2.75999502718275,-0.0471357948841044
2.76999500916529,-0.0469290788833791
2.77999499114784,-0.0467224641578815
2.78999497313038,-0.0465159528571706
2.79999495511293,-0.0463099790317538
2.80999493709548,-0.0461040505234915
2.81999491907802,-0.0458988094469181
2.82999490106057,-0.0456948411469971
2.83999488304312,-0.0454921490529417
2.84999486502566,-0.0452910082834917
2.85999484700821,-0.045093492905203
2.86999482899075,-0.0448984804910077
2.8799948109733,-0.0447065051833886
2.88999479295585,-0.0445175675136295
2.89999477493839,-0.0443314840409016
2.90999475692094,-0.0441490398714488
2.91999473890349,-0.0439700181158808
2.92999472088603,-0.0437938926310414
2.93999470286858,-0.0436206591599778
2.94999468485112,-0.0434501705734897
2.95999466683367,-0.0432809493311375
2.96999464881622,-0.0431131642926906
2.97999463079876,-0.0429463663575883
2.98999461278131,-0.0427805495676483
2.99999459476385,-0.0426157079636057
3.0099945767464,-0.0424507524702468
3.01999455872895,-0.0422846041410565
3.02999454071149,-0.0421172570231211
3.03999452269404,-0.0419487051648412
3.04999450467659,-0.0417784855865367
3.05999448665913,-0.0416067681065698
3.06999446864168,-0.0414320272238142
3.07999445062422,-0.0412541114518012
3.08999443260677,-0.0410730166378655
3.09999441458932,-0.0408881882211031
3.10999439657186,-0.0406996134422
3.11999437855441,-0.0405076504275277
3.12999436053695,-0.040312081470711
3.1399943425195,-0.0401129073218497
3.14999432450205,-0.039910710619015
3.15999430648459,-0.0397047494676271
3.16999428846714,-0.0394967205852937
3.17999427044969,-0.0392868748720703
3.18999425243223,-0.0390752159623542
3.19999423441478,-0.0388623114002648
3.20999421639732,-0.0386488252981991
3.21999419837987,-0.0384342355381214
3.22999418036242,-0.0382189554085181
3.23999416234496,-0.0380029871515771
3.24999414432751,-0.0377863516339184
3.25999412631005,-0.0375696109177692
3.2699941082926,-0.0373525995403902
3.27999409027515,-0.0371352693432085
3.28999407225769,-0.0369176215032645
3.29999405424024,-0.0366996589709738
3.30999403622279,-0.0364814859823661
3.31999401820533,-0.036263122106025
3.32999400018788,-0.0360444977878048
3.33999398217042,-0.0358256138914735
3.34999396415297,-0.035606457457792
3.35999394613552,-0.0353870337692342
3.36999392811806,-0.0351674057583843
3.37999391010061,-0.0349475754902397
3.38999389208315,-0.0347275439535154
3.3999938740657,-0.034507336755488
3.40999385604825,-0.0342866422671826
3.41999383803079,-0.0340658625945338
3.42999382001334,-0.0338451335032134
3.43999380199589,-0.0336244568742716
3.44999378397843,-0.0334039755436094
3.45999376596098,-0.0331837044998274
3.46999374794352,-0.0329639369444319
3.47999372992607,-0.0327451847034892
3.48999371190862,-0.0325274505445703
3.49999369389116,-0.0323118797678909
3.50999367587371,-0.0320972454452821
3.51999365785626,-0.0318850839559428
3.5299936398388,-0.0316756762019782
3.53999362182135,-0.0314690248978322
3.54999360380389,-0.0312667626169632
3.55999358578644,-0.0310698559135167
3.56999356776899,-0.0308758142385138
3.57999354975153,-0.0306853153508676
3.58999353173408,-0.0304983568677992
3.59999351371663,-0.0303140917570341
3.60999349569917,-0.0301339555762051
3.61999347768172,-0.0299572777450879
3.62999345966426,-0.0297828721427247
3.63999344164681,-0.0296107338036038
3.64999342362936,-0.029440107670941
3.6599934056119,-0.0292697529238577
3.66999338759445,-0.0291003304529635
3.67999336957699,-0.0289301414147871
3.68999335155954,-0.0287591809105093
3.69999333354209,-0.0285868239262576
3.70999331552463,-0.0284105699209882
3.71999329750718,-0.0282324459379281
3.72999327948973,-0.0280507154757186
3.73999326147227,-0.0278653741298568
3.74999324345482,-0.0276764366898359
3.75999322543736,-0.0274833224269179
3.76999320741991,-0.0272845520746225
3.77999318940246,-0.0270813669888692
3.789993171385,-0.0268737671141343
3.79999315336755,-0.0266621478200637
3.8099931353501,-0.0264468176659622
3.81999311733264,-0.0262270698223084
3.82999309931519,-0.0260045218554959
3.83999308129773,-0.025779177246285
3.84999306328028,-0.0255513083154997
3.85999304526283,-0.0253221766534343
3.86999302724537,-0.0250915243205364
3.87999300922792,-0.0248598288161719
3.88999299121046,-0.0246270927497976
3.89999297319301,-0.0243933705577025
3.90999295517556,-0.0241593055301519
3.9199929371581,-0.0239247801092801
3.92999291914065,-0.0236898529884264
3.9399929011232,-0.023454525570299
3.94999288310574,-0.0232188562768633
3.95999286508829,-0.0229830414039531
3.96999284707083,-0.0227470242283746
3.97999282905338,-0.0225108127042988
3.98999281103593,-0.022274407607663
3.99999279301847,-0.0220378097146094
4.00999277500102,-0.0218010945794322
4.01999275698356,-0.0215642797392442
4.02999273896611,-0.0213273660231101
4.03999272094866,-0.0210903542603472
4.0499927029312,-0.0208532548021666
4.05999268491375,-0.0206160452578104
4.0699926668963,-0.0203788815033081
4.07999264887884,-0.0201418246920024
4.08999263086139,-0.0199048764091578
4.09999261284394,-0.0196680904859177
4.10999259482648,-0.0194313203278699
4.11999257680903,-0.0191952562670482
4.12999255879157,-0.0189599533463245
4.13999254077412,-0.0187254144980808
4.14999252275666,-0.0184921032010735
4.15999250473921,-0.0182597301913895
4.16999248672176,-0.0180296018085325
4.1799924687043,-0.0178019865300547
4.18999245068685,-0.017576888363104
4.1999924326694,-0.0173559122444259
4.20999241465194,-0.01713830677276
4.21999239663449,-0.0169242138946392
4.22999237861703,-0.0167140245254605
4.23999236059958,-0.0165077390035459
4.24999234258213,-0.0163066210365084
4.25999232456467,-0.0161089254530876
4.26999230654722,-0.0159138297361908
4.27999228852977,-0.0157213491493941
4.28999227051231,-0.015531478973361
4.29999225249486,-0.0153429071916938
4.3099922344774,-0.0151572417520372
4.31999221645995,-0.0149723540576173
4.3299921984425,-0.0147877852280368
4.33999218042504,-0.01460352888717
4.34999216240759,-0.014418241028853
4.35999214439014,-0.0142327657710414
4.36999212637268,-0.0140460191683779
4.37999210835523,-0.013857349790691
4.38999209033777,-0.0136667515246262
4.39999207232032,-0.0134729303475638
4.40999205430287,-0.0132750063818066
4.41999203628541,-0.0130745637740469
4.42999201826796,-0.0128706725716412
4.4399920002505,-0.0126633300005562
4.44999198223305,-0.0124533440594911
4.4599919642156,-0.0122381987033714
4.46999194619814,-0.0120188496925613
4.47999192818069,-0.0117971536197802
4.48999191016324,-0.0115731135393626
4.49999189214578,-0.0113471505623886
4.50999187412833,-0.0111209735696908
4.51999185611087,-0.010892989490523
4.52999183809342,-0.0106646864968916
4.53999182007597,-0.0104360690775972
4.54999180205851,-0.0102070606014743
4.55999178404106,-0.00997800898863885
4.56999176602361,-0.00974784140458232
4.57999174800615,-0.00951639227356545
4.5899917299887,-0.00928366514150072
4.59999171197124,-0.00904959454351062
4.60999169395379,-0.00881485626115877
4.61999167593634,-0.00857886306438519
4.62999165791888,-0.00834145402893556
4.63999163990143,-0.00810263010160026
4.64999162188397,-0.00786252393886523
4.65999160386652,-0.00762185054496467
4.66999158584907,-0.00738055431256318
4.67999156783161,-0.00713881166972802
4.68999154981416,-0.00689662279612416
4.69999153179671,-0.00665409233779631
4.70999151377925,-0.00641117268065
4.7199914957618,-0.006168238759936
4.72999147774434,-0.00592532617421102
4.73999145972689,-0.00568243566482038
4.74999144170944,-0.00543957220545014
4.75999142369198,-0.00519653252367349
4.76999140567453,-0.00495402681394934
4.77999138765707,-0.0047121058570698
4.78999136963962,-0.0044707718178267
4.79999135162217,-0.00423053103542243
4.80999133360471,-0.00399078763860047
4.81999131558726,-0.00375230351187304
4.82999129756981,-0.00351576089135409
4.83999127955235,-0.00328116363654776
4.8499912615349,-0.00304882041343537
4.85999124351744,-0.00282096617806408
4.86999122549999,-0.00259645286492755
4.87999120748254,-0.00237591327083472
4.88999118946508,-0.00215934810829477
4.89999117144763,-0.00194653217563504
4.90999115343018,-0.00173831610732386
4.91999113541272,-0.00153426534766271
4.92999111739527,-0.00133372069096714
4.93999109937781,-0.00113667747422496
4.94999108136036,-0.000942972517831605
4.9599910633429,-0.000751225162411216
4.96999104532545,-0.000561273077226274
4.979991027308,-0.000372572007390656
4.98999100929055,-0.00018511540555659
4.99999099127309,1.10327698620753E-06
5.00999097325564,0.000187328814814582
5.01999095523818,0.000374807474008078
5.02999093722073,0.000563545802462471
5.03999091920328,0.000753550346682451
5.04999090118582,0.00094536705412394
5.05999088316837,0.00113916554747062
5.06999086515091,0.00133630518395608
5.07999084713346,0.00153694902515615
5.08999082911601,0.00174110170633842
5.09999081109855,0.00194942012372935
5.1099907930811,0.00216238635723561
5.11999077506364,0.00237908925685918
5.12999075704619,0.00259974938442754
5.13999073902874,0.00282436599673992
5.14999072101128,0.00305230273725057
5.15999070299383,0.00328470683117829
5.16999068497638,0.00351936122537384
5.17999066695892,0.00375595579505805
5.18999064894147,0.00399448668642235
5.19999063092401,0.00423427079358535
5.20999061290656,0.00447452945924494
5.21999059488911,0.00471587355012273
5.22999057687165,0.00495780246440365
5.2399905588542,0.00520031404449064
5.24999054083674,0.0054433580354785
5.25999052281929,0.00568623130022189
5.26999050480184,0.00592912968788475
5.27999048678438,0.0061720462636944
5.28999046876693,0.00641498029136821
5.29999045074948,0.00665789706538293
5.30999043273202,0.00690042702933105
5.31999041471457,0.00714261480833823
5.32999039669711,0.00738435520638072
5.33999037867966,0.00762564804622126
5.34999036066221,0.00786631661870477
5.35999034264475,0.00810641755168889
