"Distance*$Poles/(3.14159265358979*($DiaGap-$AirGap)*2*50)*1s [ms]",Flux_Lines [] - Time='0.02s'
0,-0.213965371251416
0.00999998345162601,-0.214012407265106
0.019999966903252,-0.214057071403595
0.029999950354878,-0.214099362948517
0.0399999338065041,-0.214139281185709
0.0499999172581301,-0.214176928317879
0.0599999007097561,-0.214216112802462
0.0699998841613821,-0.214253595215931
0.0799998676130081,-0.214289300582695
0.0899998510646342,-0.214323228963269
0.0999998345162602,-0.214355386987466
0.109999817967886,-0.214384665107472
0.119999801419512,-0.214413077267181
0.129999784871138,-0.214440776682239
0.139999768322764,-0.21446776302985
0.14999975177439,-0.21449370972781
0.159999735226016,-0.214516789892736
0.169999718677642,-0.214538372426152
0.179999702129268,-0.214558516333766
0.189999685580894,-0.214577221281063
0.19999966903252,-0.214594563277195
0.209999652484146,-0.214611615730072
0.219999635935772,-0.21462700789296
0.229999619387398,-0.214640636574141
0.239999602839024,-0.214652502053307
0.24999958629065,-0.214662907200553
0.259999569742276,-0.214672912472975
0.269999553193902,-0.21468126994931
0.279999536645528,-0.21468796006469
0.289999520097154,-0.214692983144415
0.29999950354878,-0.214696964822822
0.309999487000406,-0.214700675118008
0.319999470452032,-0.214703237786957
0.329999453903658,-0.214704611933205
0.339999437355285,-0.214704797834678
0.349999420806911,-0.214703684171024
0.359999404258537,-0.21470010884419
0.369999387710163,-0.214695736456608
0.379999371161789,-0.214690889618629
0.389999354613415,-0.214685568048363
0.399999338065041,-0.214679043727402
0.409999321516667,-0.214670215440155
0.419999304968293,-0.214659971998974
0.429999288419919,-0.214648376060175
0.439999271871545,-0.214635427257005
0.449999255323171,-0.214621235624878
0.459999238774797,-0.214606521324873
0.469999222226423,-0.214590395617307
0.479999205678049,-0.214572431145355
0.489999189129675,-0.214552628002537
0.499999172581301,-0.214531193735471
0.509999156032927,-0.214509305524353
0.519999139484553,-0.214485753782552
0.529999122936179,-0.214460277998217
0.539999106387805,-0.214432878295396
0.549999089839431,-0.214403967253593
0.559999073291057,-0.21437480966508
0.569999056742683,-0.214344257084019
0.579999040194309,-0.214312185814934
0.589999023645935,-0.214278596354479
0.599999007097561,-0.214243285855534
0.609998990549187,-0.214205307937495
0.619998974000813,-0.214165917454912
0.629998957452439,-0.21412585731779
0.639998940904065,-0.214085128081666
0.649998924355691,-0.214043305331024
0.659998907807317,-0.213998166069544
0.669998891258943,-0.213951318550829
0.679998874710569,-0.21390288611452
0.689998858162195,-0.21385286892121
0.699998841613821,-0.213801292297154
0.709998825065447,-0.213749232658602
0.719998808517073,-0.213695282483646
0.729998791968699,-0.213639113755623
0.739998775420325,-0.213580727409244
0.749998758871951,-0.213520372421809
0.759998742323577,-0.21345980456678
0.769998725775203,-0.213397024422087
0.779998709226829,-0.21333172475808
0.789998692678455,-0.213263906892725
0.799998676130081,-0.213194370673461
0.809998659581707,-0.213125469702691
0.819998643033333,-0.21305530085861
0.829998626484959,-0.212983710855559
0.839998609936585,-0.21291070221394
0.849998593388211,-0.212836307625855
0.859998576839837,-0.212758572093069
0.869998560291463,-0.212680976488797
0.87999854374309,-0.212604686878328
0.889998527194715,-0.212529704875012
0.899998510646341,-0.212455682477666
0.909998494097968,-0.212377338954999
0.919998477549593,-0.212298594706359
0.92999846100122,-0.212219306987043
0.939998444452846,-0.21213947383736
0.949998427904472,-0.212059075622206
0.959998411356098,-0.211980794372286
0.969998394807724,-0.211900611323093
0.979998378259349,-0.211817943498832
0.989998361710976,-0.21173278782812
0.999998345162602,-0.211645141243275
1.00999832861423,-0.211557698974905
1.01999831206585,-0.211466895982499
1.02999829551748,-0.211372729665369
1.03999827896911,-0.211275197427492
1.04999826242073,-0.21117416787146
1.05999824587236,-0.211071788637356
1.06999822932398,-0.210965279206919
1.07999821277561,-0.210854530747959
1.08999819622724,-0.210739541500303
1.09999817967886,-0.210619769145018
1.10999816313049,-0.210493144726916
1.11999814658211,-0.210362895866153
1.12999813003374,-0.210229020215812
1.13999811348537,-0.210091518562035
1.14999809693699,-0.209949949191751
1.15999808038862,-0.209800366616846
1.16999806384024,-0.209646873699334
1.17999804729187,-0.209489686045634
1.1899980307435,-0.209328806008949
1.19999801419512,-0.209164428599115
1.20999799764675,-0.208997755978869
1.21999798109837,-0.208826981525802
1.22999796455,-0.208651728077799
1.23999794800163,-0.208471997886755
1.24999793145325,-0.208287984358336
1.25999791490488,-0.208102912639916
1.2699978983565,-0.20791326874896
1.27999788180813,-0.207717889439996
1.28999786525976,-0.207516776017778
1.29999784871138,-0.207311002658588
1.30999783216301,-0.207105258194083
1.31999781561463,-0.206895832051668
1.32999779906626,-0.206681500986275
1.33999778251789,-0.206462268143528
1.34999776596951,-0.206237780802462
1.35999774942114,-0.206003604813281
1.36999773287276,-0.205766373910476
1.37999771632439,-0.205527330446315
1.38999769977602,-0.2052864766016
1.39999768322764,-0.205040500517732
1.40999766667927,-0.204783604551084
1.41999765013089,-0.204520760389353
1.42999763358252,-0.204253059336443
1.43999761703415,-0.203980504579465
1.44999760048577,-0.203703716579088
1.4599975839374,-0.203425491996235
1.46999756738902,-0.20314175710697
1.47999755084065,-0.202851661370268
1.48999753429228,-0.202555210790538
1.4999975177439,-0.20225482242027
1.50999750119553,-0.20195648715009
1.51999748464715,-0.20165370747271
1.52999746809878,-0.201346217823574
1.53999745155041,-0.201034023177814
1.54999743500203,-0.200722226158578
1.55999741845366,-0.200418301090453
1.56999740190528,-0.200113931691531
1.57999738535691,-0.19981001980739
1.58999736880854,-0.199506562410596
1.59999735226016,-0.19920083845362
1.60999733571179,-0.198888867147761
1.61999731916341,-0.198576713315164
1.62999730261504,-0.198266619708167
1.63999728606667,-0.197958574379801
1.64999726951829,-0.197650530746433
1.65999725296992,-0.197335233285301
1.66999723642154,-0.197017500510004
1.67999721987317,-0.196694415190338
1.6899972033248,-0.196365962491688
1.69999718677642,-0.196032370272826
1.70999717022805,-0.195697483096963
1.71999715367967,-0.195357872736338
1.7299971371313,-0.195010254717724
1.73999712058293,-0.194654618188726
1.74999710403455,-0.194291164090613
1.75999708748618,-0.193920949211521
1.7699970709378,-0.193540734211927
1.77999705438943,-0.193153474142886
1.78999703784106,-0.192759168421644
1.79999702129268,-0.192358450525477
1.80999700474431,-0.19194949988894
1.81999698819594,-0.191532423880089
1.82999697164756,-0.191109773514203
1.83999695509919,-0.190681553853844
1.84999693855081,-0.190248579776981
1.85999692200244,-0.189817047650042
1.86999690545406,-0.189382242975213
1.87999688890569,-0.188944372952654
1.88999687235732,-0.188503441943915
1.89999685580894,-0.188059725102158
1.90999683926057,-0.187616209932792
1.9199968227122,-0.187171791938297
1.92999680616382,-0.186726605112
1.93999678961545,-0.186280651971056
1.94999677306707,-0.185833889777068
1.9599967565187,-0.18538509195979
1.96999673997033,-0.184935599768087
1.97999672342195,-0.184485442767974
1.98999670687358,-0.18403462246679
1.9999966903252,-0.183583140372627
2.00999667377683,-0.183130438404904
2.01999665722845,-0.182676789461818
2.02999664068008,-0.182222195428282
2.03999662413171,-0.181766658190698
2.04999660758333,-0.181310177621119
2.05999659103496,-0.180852683697083
2.06999657448659,-0.180394337501464
2.07999655793821,-0.179935143523814
2.08999654138984,-0.179475104946944
2.09999652484146,-0.179014332529688
2.10999650829309,-0.178552645575473
2.11999649174472,-0.178091145856897
2.12999647519634,-0.177629954183356
2.13999645864797,-0.17716907636816
2.14999644209959,-0.176709360332419
2.15999642555122,-0.176250179991829
2.16999640900285,-0.175794070426028
2.17999639245447,-0.175341605238139
2.1899963759061,-0.174892792503197
2.19999635935772,-0.174450574047452
2.20999634280935,-0.17401389076611
2.21999632626098,-0.173582984690334
2.2299963097126,-0.173158753851304
2.23999629316423,-0.172741199419244
2.24999627661585,-0.172332835853483
2.25999626006748,-0.171931023947814
2.26999624351911,-0.171533557736728
2.27999622697073,-0.171140578505839
2.28999621042236,-0.170752076879289
2.29999619387398,-0.170365930315687
2.30999617732561,-0.169985072926424
2.31999616077724,-0.16960466132975
2.32999614422886,-0.169224200308313
2.33999612768049,-0.168843676799854
2.34999611113211,-0.168459953971147
2.35999609458374,-0.168075932718089
2.36999607803537,-0.167688645852913
2.37999606148699,-0.16729682445451
2.38999604493862,-0.166900456154576
2.39999602839024,-0.166496662727058
2.40999601184187,-0.166083790048393
2.4199959952935,-0.165665075849402
2.42999597874512,-0.165238507907994
2.43999596219675,-0.164804081581409
2.44999594564837,-0.164363137611345
2.4599959291,-0.163909893091353
2.46999591255163,-0.163447225646796
2.47999589600325,-0.162977823314757
2.48999587945488,-0.162501692631391
2.4999958629065,-0.16202035994396
2.50999584635813,-0.161534482906729
2.51999582980976,-0.161043674159038
2.52999581326138,-0.160549682060515
2.53999579671301,-0.160052513526045
2.54999578016463,-0.159553543995472
2.55999576361626,-0.159052977763215
2.56999574706789,-0.158550370327606
2.57999573051951,-0.158046365450234
2.58999571397114,-0.157540967330229
2.59999569742276,-0.157034387169024
2.60999568087439,-0.156527390884432
2.61999566432602,-0.156019333351225
2.62999564777764,-0.155510240358901
2.63999563122927,-0.15500011421065
2.64999561468089,-0.154488946835872
2.65999559813252,-0.153976846615646
2.66999558158415,-0.153463821353553
2.67999556503577,-0.152949814098094
2.6899955484874,-0.152434826879939
2.69999553193902,-0.15191873044406
2.70999551539065,-0.151401590584295
2.71999549884228,-0.150883590736626
2.7299954822939,-0.150364729835218
2.73999546574553,-0.149845010610078
2.74999544919715,-0.149324377854958
2.75999543264878,-0.148802413900756
2.76999541610041,-0.148280475929773
2.77999539955203,-0.1477586469475
2.78999538300366,-0.147236932118758
2.79999536645528,-0.14671641751968
2.80999534990691,-0.146196075292637
2.81999533335854,-0.145677102707226
2.82999531681016,-0.145161003457462
2.83999530026179,-0.144647786021408
2.84999528371341,-0.144137985544398
2.85999526716504,-0.143636348082171
2.86999525061667,-0.143140890941642
2.87999523406829,-0.142653051762764
2.88999521751992,-0.142172832628684
2.89999520097154,-0.141699747995375
2.90999518442317,-0.141234690517858
2.9199951678748,-0.140778304322864
2.92999515132642,-0.140329107546503
2.93999513477805,-0.13988708980527
2.94999511822967,-0.139451918771469
2.9599951016813,-0.139019831705644
2.96999508513293,-0.138591168023715
2.97999506858455,-0.138164733506069
2.98999505203618,-0.137740513146236
2.9999950354878,-0.137318491935313
3.00999501893943,-0.136895978464754
3.01999500239106,-0.136470132024283
3.02999498584268,-0.136040937559334
3.03999496929431,-0.13560838001903
3.04999495274593,-0.135171216632617
3.05999493619756,-0.13472982826649
3.06999491964919,-0.134280352578717
3.07999490310081,-0.133822444361276
3.08999488655244,-0.133356093459918
3.09999487000406,-0.132879683204466
3.10999485345569,-0.132393605856988
3.11999483690732,-0.131898693593875
3.12999482035894,-0.131394429005
3.13999480381057,-0.130880814634329
3.1499947872622,-0.130359122650721
3.15999477071382,-0.129827589884291
3.16999475416545,-0.129290433141621
3.17999473761707,-0.128748107920118
3.1899947210687,-0.128200623565036
3.19999470452032,-0.127649367177056
3.20999468797195,-0.127095609538222
3.21999467142358,-0.126538143361517
3.2299946548752,-0.125977921439713
3.23999463832683,-0.125414949723174
3.24999462177845,-0.124849225215619
3.25999460523008,-0.12428201651136
3.26999458868171,-0.123712859849265
3.27999457213333,-0.123141537822568
3.28999455558496,-0.122568053478154
3.29999453903659,-0.121992427691682
3.30999452248821,-0.121415092989614
3.31999450593984,-0.120836036722712
3.32999448939146,-0.120255012931206
3.33999447284309,-0.119672023522377
3.34999445629472,-0.119087164392701
3.35999443974634,-0.118500495769553
3.36999442319797,-0.117912310811705
3.37999440664959,-0.117322669326074
3.38999439010122,-0.116731573440504
3.39999437355285,-0.116139354062809
3.40999435700447,-0.115545097512633
3.4199943404561,-0.114949868688887
3.42999432390772,-0.11435435431234
3.43999430735935,-0.113758558892118
3.44999429081098,-0.113163417418475
3.4599942742626,-0.112568451641503
3.46999425771423,-0.111973932329394
3.47999424116585,-0.111381912258323
3.48999422461748,-0.110792399407376
3.49999420806911,-0.110207649298823
3.50999419152073,-0.109627395187809
3.51999417497236,-0.10905219858427
3.52999415842398,-0.108483980472229
3.53999414187561,-0.107922748254304
3.54999412532724,-0.107371780985891
3.55999410877886,-0.106834914436103
3.56999409223049,-0.106304814025458
3.57999407568211,-0.105782962635794
3.58999405913374,-0.105269354374743
3.59999404258537,-0.10476168285803
3.60999402603699,-0.104264216226823
3.61999400948862,-0.103774594741371
3.62999399294024,-0.103289197086679
3.63999397639187,-0.102808008163115
3.6499939598435,-0.102329481668201
3.65999394329512,-0.10185025018029
3.66999392674675,-0.101373691692439
3.67999391019837,-0.100895794576354
3.68999389365,-0.100416542832215
3.69999387710163,-0.0999352715398273
3.70999386055325,-0.0994457444201043
3.71999384400488,-0.0989519306479779
3.7299938274565,-0.0984510039830894
3.73999381090813,-0.0979429527635357
3.74999379435976,-0.0974279167912062
3.75999377781138,-0.0969021189468222
3.76999376126301,-0.0963631984666053
3.77999374471463,-0.095814017168763
3.78999372816626,-0.0952545760909899
3.79999371161789,-0.0946858779489494
3.80999369506951,-0.094107148892645
3.81999367852114,-0.0935177991707283
3.82999366197276,-0.0929213400637614
3.83999364542439,-0.0923177814373047
3.84999362887602,-0.0917078556469814
3.85999361232764,-0.0910943096078743
3.86999359577927,-0.0904765830146507
3.87999357923089,-0.0898558463616884
3.88999356268252,-0.0892321071098999
3.89999354613415,-0.0886055775564226
3.90999352958577,-0.0879779491373546
3.9199935130374,-0.087348986178018
3.92999349648902,-0.0867188912305734
3.93999347994065,-0.086087668457436
3.94999346339228,-0.0854553624018966
3.9599934468439,-0.0848224598044929
3.96999343029553,-0.0841891025934293
3.97999341374715,-0.0835553128566544
3.98999339719878,-0.0829210934641297
3.99999338065041,-0.0822864472863378
4.00999336410203,-0.0816517398640318
4.01999334755366,-0.0810161298682533
4.02999333100528,-0.0803796210131025
4.03999331445691,-0.0797422170146087
4.04999329790854,-0.0791038807121689
4.05999328136016,-0.0784633767679034
4.06999326481179,-0.0778216559266529
4.07999324826341,-0.0771787273101664
4.08999323171504,-0.0765345955602117
4.09999321516667,-0.0758895556248962
4.10999319861829,-0.0752436359724865
4.11999318206992,-0.074598587154188
4.12999316552154,-0.0739546802308717
4.13999314897317,-0.0733119225732155
4.1499931324248,-0.0726717755542918
4.15999311587642,-0.0720343755747121
4.16999309932805,-0.0714023299559796
4.17999308277968,-0.0707764711063783
4.1899930662313,-0.0701568086768671
4.19999304968293,-0.0695454912862901
4.20999303313455,-0.0689485776087086
4.21999301658618,-0.0683602680625547
4.2299930000378,-0.0677819310001559
4.23999298348943,-0.0672135632410158
4.24999296694106,-0.0666536296481529
4.25999295039268,-0.066103297082956
4.26999293384431,-0.0655638594355724
4.27999291729594,-0.0650312772480781
4.28999290074756,-0.0645055354676565
4.29999288419919,-0.0639856072403988
4.30999286765081,-0.0634688389841026
4.31999285110244,-0.0629553905545822
4.32999283455406,-0.0624426043866489
4.33999281800569,-0.061930464119574
4.34999280145732,-0.061415527346859
4.35999278490894,-0.0609009457489614
4.36999276836057,-0.0603818987392623
4.3799927518122,-0.0598575187309758
4.38999273526382,-0.0593277894376732
4.39999271871545,-0.0587888901027824
4.40999270216707,-0.0582388049653289
4.4199926856187,-0.0576814786070852
4.42999266907033,-0.0571141557084376
4.43999265252195,-0.0565368298421663
4.44999263597358,-0.0559509574778024
4.4599926194252,-0.055349020790365
4.46999260287683,-0.0547349199710036
4.47999258632846,-0.0541117541221734
4.48999256978008,-0.0534795310608588
4.49999255323171,-0.0528402340015627
4.50999253668333,-0.0521942948619225
4.51999252013496,-0.0515415380686342
4.52999250358659,-0.0508842722452688
4.53999248703821,-0.0502225064784559
4.54999247048984,-0.0495583347125134
4.55999245394146,-0.0488918031196365
4.56999243739309,-0.0482225808833207
4.57999242084472,-0.0475516697404276
4.58999240429634,-0.0468790752320577
4.59999238774797,-0.0462054052675553
4.60999237119959,-0.0455317387640567
4.61999235465122,-0.0448571210205243
4.62999233810284,-0.0441818808914615
4.63999232155447,-0.043506021142081
4.6499923050061,-0.0428296003153086
4.65999228845772,-0.0421529950376047
4.66999227190935,-0.0414761994621256
4.67999225536097,-0.0407992737719178
4.6899922388126,-0.0401222202714084
4.69999222226423,-0.0394449973105246
4.70999220571585,-0.0387675468773497
4.71999218916748,-0.0380904051605856
4.7299921726191,-0.0374136170350151
4.73999215607073,-0.0367371858168953
4.74999213952236,-0.036061230245907
4.75999212297398,-0.0353851634059645
4.76999210642561,-0.0347109250349484
4.77999208987724,-0.0340387225755525
4.78999207332886,-0.0333685624983556
4.79999205678049,-0.0327020386413002
4.80999204023211,-0.0320380557603251
4.81999202368374,-0.0313780511243003
4.82999200713536,-0.0307241888681617
4.83999199058699,-0.0300764792339894
4.84999197403862,-0.0294355057509953
4.85999195749024,-0.0288071396959302
4.86999194094187,-0.0281889742453207
4.87999192439349,-0.0275824502364505
4.88999190784512,-0.026987570695222
4.89999189129675,-0.0264036205946607
4.90999187474837,-0.0258312519428148
4.9199918582,-0.0252695242625133
4.92999184165163,-0.0247160542185023
4.93999182510325,-0.0241708300457818
4.94999180855488,-0.023633449552116
4.9599917920065,-0.0230997532330247
4.96999177545813,-0.0225700491494996
4.97999175890976,-0.0220428548806155
4.98999174236138,-0.02151815207694
4.99999172581301,-0.0209959223865256
5.00999170926463,-0.0204733786981175
5.01999169271626,-0.0199471221872186
5.02999167616789,-0.0194171343822949
5.03999165961951,-0.0188833968161428
5.04999164307114,-0.0183444342882554
5.05999162652276,-0.0178000576779795
5.06999160997439,-0.0172464008798125
5.07999159342602,-0.016683075626089
5.08999157687764,-0.0161100688774977
5.09999156032927,-0.0155253829396548
5.10999154378089,-0.0149285774206259
5.11999152723252,-0.0143213738597703
5.12999151068415,-0.0137031897736704
5.13999149413577,-0.0130740265251081
5.1499914775874,-0.0124351657608689
5.15999146103902,-0.0117840678885216
5.16999144449065,-0.0111265293454927
5.17999142794228,-0.0104630863377023
5.1899914113939,-0.0097937488364194
5.19999139484553,-0.00912057548731278
5.20999137829715,-0.00844485861068862
5.21999136174878,-0.00776550649264872
5.22999134520041,-0.0070840349155573
5.23999132865203,-0.00640045053341484
5.24999131210366,-0.00571493952374756
5.25999129555528,-0.0050293630170154
5.26999127900691,-0.00434317605776749
5.27999126245854,-0.00365647623326649
5.28999124591016,-0.0029692670444519
5.29999122936179,-0.00228158942378632
5.30999121281341,-0.00159394534590305
5.31999119626504,-0.000906293606438357
5.32999117971667,-0.000218585738655715
5.33999116316829,0.000469175728269118
5.34999114661992,0.00115696151321756
5.35999113007154,0.00184477523010716
5.36999111352317,0.00253228843565212
5.3799910969748,0.00321945880686229
5.38999108042642,0.00390628333644773
5.39999106387805,0.00459244923982025
5.40999104732968,0.0052789142649401
5.4199910307813,0.00596461621658453
5.42999101423293,0.00664896512622953
5.43999099768455,0.00733195532153453
5.44999098113618,0.00801252845410316
5.45999096458781,0.00869091780763984
5.46999094803943,0.00936710374106
